-1,25061064973131  -1,42403517342452  0  0  10
-1,26526624328285  -1,44113336590132  9  0  10
-1,28236443575965  -1,45578895945286  14  0  10
-1,29946262823644  -1,47288715192965  19  0  10
-1,31656082071324  -1,48754274548119  24  0  10
-1,33121641426478  -1,50464093795799  29  0  10
-1,34831460674157  -1,51929653150953  34  0  10
-1,36541279921837  -1,53395212506106  39  0  10
-1,38006839276991  -1,55105031753786  44  0  10
-1,3971665852467  -1,5657059110894  49  0  10
-1,4142647777235  -1,58036150464094  54  0  10
-1,42892037127504  -1,59745969711773  59  0  10
-1,44601856375183  -1,61211529066927  64  0  10
-1,46067415730337  -1,62677088422081  69  0  10
-1,47777234978017  -1,64142647777235  74  0  10
-1,4924279433317  -1,65608207132389  79  0  10
-1,5095261358085  -1,67318026380068  84  0  10
-1,52418172936004  -1,68783585735222  89  0  10
-1,54127992183683  -1,70249145090376  94  0  10
-1,55593551538837  -1,7171470444553  99  0  10
-1,57303370786517  -1,73180263800684  104  0  10
-1,58768930141671  -1,74645823155838  109  0  10
-1,60234489496825  -1,76111382510992  114  0  10
-1,61944308744504  -1,77576941866146  119  0  10
-1,63409868099658  -1,79042501221299  124  0  10
-1,64875427454812  -1,80263800683928  129  0  10
-1,66340986809966  -1,81729360039082  134  0  10
-1,68050806057645  -1,83194919394235  139  0  10
-1,69516365412799  -1,84660478749389  144  0  10
-1,70981924767953  -1,86126038104543  149  0  10
-1,72447484123107  -1,87347337567171  154  0  10
-1,73913043478261  -1,88812896922325  159  0  10
-1,75378602833415  -1,90278456277479  164  0  10
-1,76844162188569  -1,91499755740107  169  0  10
-1,78309721543723  -1,92965315095261  174  0  10
-1,79775280898876  -1,94430874450415  179  0  10
-1,8124084025403  -1,95652173913043  184  0  10
-1,82706399609184  -1,97117733268197  189  0  10
-1,84171958964338  -1,98339032730826  194  0  10
-1,85637518319492  -1,99804592085979  199  0  10
-1,87103077674646  -2,01025891548608  204  0  10
-1,88324377137274  -2,02247191011236  209  0  10
-1,89789936492428  -2,0371275036639  214  0  10
-1,91255495847582  -2,04934049829018  219  0  10
-1,92721055202736  -2,06155349291646  224  0  10
-1,93942354665364  -2,076209086468  229  0  10
-1,95407914020518  -2,08842208109428  234  0  10
-1,96873473375672  -2,10063507572057  239  0  10
-1,980947728383  -2,11284807034685  244  0  10
-1,99560332193454  -2,12506106497313  249  0  10
-2,00781631656082  -2,13727405959941  254  0  10
-2,02247191011236  -2,1494870542257  259  0  10
-2,03468490473864  -2,16170004885198  264  0  10
-2,04934049829018  -2,17391304347826  269  0  10
-2,06155349291646  -2,18612603810454  274  0  10
-2,076209086468  -2,19833903273083  279  0  10
-2,08842208109428  -2,21055202735711  284  0  10
-2,10063507572057  -2,22276502198339  289  0  10
-2,11529066927211  -2,23497801660967  294  0  10
-2,12750366389839  -2,2447484123107  299  0  10
-2,13971665852467  -2,25696140693698  304  0  10
-2,15192965315095  -2,26917440156326  309  0  10
-2,16414264777724  -2,27894479726429  314  0  10
-2,17635564240352  -2,29115779189057  319  0  10
-2,19101123595506  -2,30337078651685  324  0  10
-2,20322423058134  -2,31314118221788  329  0  10
-2,21543722520762  -2,32535417684416  334  0  10
-2,2276502198339  -2,33512457254519  339  0  10
-2,23742061553493  -2,34489496824621  344  0  10
-2,24963361016121  -2,3571079628725  349  0  10
-2,26184660478749  -2,36687835857352  354  0  10
-2,27405959941378  -2,3790913531998  359  0  10
-2,28627259404006  -2,38886174890083  364  0  10
-2,29848558866634  -2,39863214460186  369  0  10
-2,30825598436737  -2,40840254030288  374  0  10
-2,32046897899365  -2,41817293600391  379  0  10
-2,33268197361993  -2,42794333170493  384  0  10
-2,34245236932096  -2,44015632633122  389  0  10
-2,35466536394724  -2,44992672203224  395  0  10
-2,36443575964827  -2,45969711773327  400  0  10
-2,37664875427455  -2,46946751343429  405  0  10
-2,38641914997557  -2,47679531021006  410  0  10
-2,39863214460186  -2,48656570591109  415  0  10
-2,40840254030288  -2,49633610161212  420  0  10
-2,41817293600391  -2,50610649731314  425  0  10
-2,43038593063019  -2,51587689301417  430  0  10
-2,44015632633122  -2,52320468978994  435  0  10
-2,44992672203224  -2,53297508549096  440  0  10
-2,45969711773327  -2,54274548119199  445  0  10
-2,47191011235955  -2,55007327796776  450  0  10
-2,48168050806058  -2,55984367366878  455  0  10
-2,4914509037616  -2,56717147044455  460  0  10
-2,50122129946263  -2,57694186614558  465  0  10
-2,51099169516365  -2,58426966292135  470  0  10
-2,52076209086468  -2,59404005862237  475  0  10
-2,53053248656571  -2,60136785539814  480  0  10
-2,53786028334148  -2,60869565217391  485  0  10
-2,5476306790425  -2,61846604787494  490  0  10
-2,55740107474353  -2,62579384465071  495  0  10
-2,56717147044455  -2,63312164142648  500  0  10
-2,57694186614558  -2,64044943820225  505  0  10
-2,58426966292135  -2,64777723497802  510  0  10
-2,59404005862237  -2,65510503175379  515  0  10
-2,60136785539814  -2,66243282852956  520  0  10
-2,61113825109917  -2,66976062530533  525  0  10
-2,6209086468002  -2,67708842208109  530  0  10
-2,62823644357596  -2,68441621885686  535  0  10
-2,63556424035173  -2,69174401563263  540  0  10
-2,64533463605276  -2,6990718124084  545  0  10
-2,65266243282853  -2,70395701025892  550  0  10
-2,6599902296043  -2,71128480703468  555  0  10
-2,66976062530533  -2,71861260381045  560  0  10
-2,67708842208109  -2,72349780166097  565  0  10
-2,68441621885686  -2,73082559843674  570  0  10
-2,69174401563263  -2,73571079628725  575  0  10
-2,6990718124084  -2,74303859306302  580  0  10
-2,70639960918417  -2,74792379091353  585  0  10
-2,71372740595994  -2,7552515876893  590  0  10
-2,72105520273571  -2,76013678553981  595  0  10
-2,72838299951148  -2,76502198339033  600  0  10
-2,73571079628725  -2,76990718124084  605  0  10
-2,74303859306302  -2,77723497801661  610  0  10
-2,75036638983879  -2,78212017586712  615  0  10
-2,7552515876893  -2,78700537371764  620  0  10
-2,76257938446507  -2,79189057156815  625  0  10
-2,76990718124084  -2,79677576941866  630  0  10
-2,77479237909135  -2,80166096726917  635  0  10
-2,78212017586712  -2,80654616511969  640  0  10
-2,78700537371764  -2,8114313629702  645  0  10
-2,79433317049341  -2,81631656082071  650  0  10
-2,79921836834392  -2,82120175867123  655  0  10
-2,80654616511969  -2,82364435759648  660  0  10
-2,8114313629702  -2,828529555447  665  0  10
-2,81631656082071  -2,83341475329751  670  0  10
-2,82120175867123  -2,83585735222277  675  0  10
-2,828529555447  -2,84074255007328  680  0  10
-2,83341475329751  -2,84318514899853  685  0  10
-2,83829995114802  -2,84807034684905  690  0  10
-2,84318514899853  -2,8505129457743  695  0  10
-2,84807034684905  -2,85539814362482  700  0  10
-2,85295554469956  -2,85784074255007  705  0  10
-2,85784074255007  -2,86028334147533  710  0  10
-2,86272594040059  -2,86516853932584  715  0  10
-2,8676111382511  -2,8676111382511  720  0  10
-2,87005373717636  -2,87005373717636  725  0  10
-2,87493893502687  -2,87249633610161  730  0  10
-2,87982413287738  -2,87493893502687  735  0  10
-2,88470933072789  -2,87738153395212  740  0  10
-2,88715192965315  -2,87982413287738  745  0  10
-2,89203712750366  -2,88226673180264  750  0  10
-2,89447972642892  -2,88470933072789  755  0  10
-2,89936492427943  -2,88715192965315  760  0  10
-2,90180752320469  -2,88715192965315  765  0  10
-2,9066927210552  -2,88959452857841  770  0  10
-2,90913531998046  -2,89203712750366  775  0  10
-2,91157791890572  -2,89203712750366  780  0  10
-2,91402051783097  -2,89447972642892  785  0  10
-2,91890571568148  -2,89692232535418  790  0  10
-2,92134831460674  -2,89692232535418  795  0  10
-2,923790913532  -2,89936492427943  800  0  10
-2,92623351245725  -2,89936492427943  805  0  10
-2,92867611138251  -2,89936492427943  810  0  10
-2,93111871030777  -2,90180752320469  815  0  10
-2,93356130923302  -2,90180752320469  820  0  10
-2,93600390815828  -2,90180752320469  825  0  10
-2,93600390815828  -2,90180752320469  830  0  10
-2,93844650708354  -2,90180752320469  835  0  10
-2,94088910600879  -2,90180752320469  840  0  10
-2,94333170493405  -2,90425012212995  845  0  10
-2,94333170493405  -2,90180752320469  850  0  10
-2,94577430385931  -2,90180752320469  855  0  10
-2,94577430385931  -2,90180752320469  860  0  10
-2,94821690278456  -2,90180752320469  865  0  10
-2,94821690278456  -2,90180752320469  870  0  10
-2,95065950170982  -2,90180752320469  875  0  10
-2,95065950170982  -2,89936492427943  880  0  10
-2,95065950170982  -2,89936492427943  885  0  10
-2,95310210063508  -2,89936492427943  890  0  10
-2,95310210063508  -2,89692232535418  895  0  10
-2,95310210063508  -2,89692232535418  900  0  10
-2,95310210063508  -2,89447972642892  906  0  10
-2,95310210063508  -2,89447972642892  911  0  10
-2,95310210063508  -2,89203712750366  916  0  10
-2,95310210063508  -2,88959452857841  921  0  10
-2,95310210063508  -2,88959452857841  926  0  10
-2,95310210063508  -2,88715192965315  931  0  10
-2,95310210063508  -2,88470933072789  936  0  10
-2,95310210063508  -2,88226673180264  941  0  10
-2,95065950170982  -2,87982413287738  946  0  10
-2,95065950170982  -2,87738153395212  951  0  10
-2,95065950170982  -2,87493893502687  956  0  10
-2,94821690278456  -2,87249633610161  961  0  10
-2,94821690278456  -2,87005373717636  966  0  10
-2,94577430385931  -2,8676111382511  971  0  10
-2,94577430385931  -2,86516853932584  976  0  10
-2,94333170493405  -2,86272594040059  981  0  10
-2,94333170493405  -2,85784074255007  986  0  10
-2,94088910600879  -2,85539814362482  991  0  10
-2,93844650708354  -2,85295554469956  996  0  10
-2,93600390815828  -2,84807034684905  1001  1  255
-2,93600390815828  -2,84562774792379  1006  1  255
-2,93356130923302  -2,84074255007328  1011  1  255
-2,93111871030777  -2,83829995114802  1016  1  255
-2,92867611138251  -2,83341475329751  1021  1  255
-2,92623351245725  -2,828529555447  1026  1  255
-2,923790913532  -2,82608695652174  1031  1  255
-2,92134831460674  -2,82120175867123  1036  1  255
-2,91890571568148  -2,81631656082071  1041  1  255
-2,91402051783097  -2,8114313629702  1046  1  255
-2,91157791890572  -2,80654616511969  1051  1  255
-2,90913531998046  -2,80166096726917  1056  1  255
-2,9066927210552  -2,79921836834392  1061  1  255
-2,90180752320469  -2,79189057156815  1066  1  255
-2,89936492427943  -2,78700537371764  1071  1  255
-2,89447972642892  -2,78212017586712  1076  1  255
-2,89203712750366  -2,77723497801661  1081  1  255
-2,88715192965315  -2,7723497801661  1086  1  255
-2,88470933072789  -2,76746458231558  1091  1  255
-2,87982413287738  -2,76013678553981  1096  1  255
-2,87493893502687  -2,7552515876893  1101  1  255
-2,87005373717636  -2,75036638983879  1106  1  255
-2,8676111382511  -2,74303859306302  1111  1  255
-2,86272594040059  -2,73815339521251  1116  1  255
-2,85784074255007  -2,73082559843674  1121  1  255
-2,85295554469956  -2,72594040058622  1126  1  255
-2,84807034684905  -2,71861260381045  1131  1  255
-2,84318514899853  -2,71372740595994  1136  1  255
-2,83829995114802  -2,70639960918417  1141  1  255
-2,83341475329751  -2,6990718124084  1146  1  255
-2,828529555447  -2,69174401563263  1151  1  255
-2,82120175867123  -2,68685881778212  1156  1  255
-2,81631656082071  -2,67953102100635  1161  1  255
-2,8114313629702  -2,67220322423058  1166  1  255
-2,80654616511969  -2,66487542745481  1171  1  255
-2,79921836834392  -2,65754763067904  1176  1  255
-2,79433317049341  -2,65021983390327  1181  1  255
-2,78700537371764  -2,6428920371275  1186  1  255
-2,78212017586712  -2,63556424035173  1191  1  255
-2,77479237909135  -2,62579384465071  1196  1  255
-2,76990718124084  -2,61846604787494  1201  1  255
-2,76257938446507  -2,61113825109917  1206  1  255
-2,7552515876893  -2,6038104543234  1211  1  255
-2,75036638983879  -2,59404005862237  1216  1  255
-2,74303859306302  -2,5867122618466  1221  1  255
-2,73571079628725  -2,57938446507084  1226  1  255
-2,72838299951148  -2,56961406936981  1231  1  255
-2,72105520273571  -2,56228627259404  1237  1  255
-2,71372740595994  -2,55251587689301  1242  1  255
-2,70639960918417  -2,54518808011724  1247  1  255
-2,6990718124084  -2,53541768441622  1252  1  255
-2,69174401563263  -2,52564728871519  1257  1  255
-2,68441621885686  -2,51831949193942  1262  1  255
-2,67708842208109  -2,5085490962384  1267  1  255
-2,66976062530533  -2,49877870053737  1272  1  255
-2,6599902296043  -2,48900830483635  1277  1  255
-2,65266243282853  -2,47923790913532  1282  1  255
-2,64533463605276  -2,46946751343429  1287  1  255
-2,63556424035173  -2,45969711773327  1292  1  255
-2,62823644357596  -2,44992672203224  1297  1  255
-2,6209086468002  -2,44015632633122  1302  1  255
-2,61113825109917  -2,43038593063019  1307  1  255
-2,60136785539814  -2,42061553492916  1312  1  255
-2,59404005862237  -2,41084513922814  1317  1  255
-2,58426966292135  -2,40107474352711  1322  1  255
-2,57694186614558  -2,39130434782609  1327  1  255
-2,56717147044455  -2,3790913531998  1332  1  255
-2,55740107474353  -2,36932095749878  1337  1  255
-2,5476306790425  -2,35955056179775  1342  1  255
-2,53786028334148  -2,34733756717147  1347  1  255
-2,53053248656571  -2,33756717147044  1352  1  255
-2,52076209086468  -2,32779677576942  1357  1  255
-2,51099169516365  -2,31558378114314  1362  1  255
-2,50122129946263  -2,30581338544211  1367  1  255
-2,4914509037616  -2,29360039081583  1372  1  255
-2,48168050806058  -2,28138739618955  1377  1  255
-2,47191011235955  -2,27161700048852  1382  1  255
-2,45969711773327  -2,25940400586224  1387  1  255
-2,44992672203224  -2,24719101123596  1392  1  255
-2,44015632633122  -2,23742061553493  1397  1  255
-2,43038593063019  -2,22520762090865  1402  1  255
-2,41817293600391  -2,21299462628236  1407  1  255
-2,40840254030288  -2,20078163165608  1412  1  255
-2,39863214460186  -2,1885686370298  1417  1  255
-2,38641914997557  -2,17635564240352  1422  1  255
-2,37664875427455  -2,16414264777724  1427  1  255
-2,36443575964827  -2,15192965315095  1432  1  255
-2,35466536394724  -2,13971665852467  1437  1  255
-2,34245236932096  -2,12750366389839  1442  1  255
-2,33268197361993  -2,11529066927211  1447  1  255
-2,32046897899365  -2,10307767464582  1452  1  255
-2,30825598436737  -2,09086468001954  1457  1  255
-2,29848558866634  -2,07865168539326  1462  1  255
-2,28627259404006  -2,06399609184172  1467  1  255
-2,27405959941378  -2,05178309721544  1472  1  255
-2,26184660478749  -2,03957010258915  1477  1  255
-2,24963361016121  -2,02735710796287  1482  1  255
-2,23742061553493  -2,01270151441133  1487  1  255
-2,2276502198339  -2,00048851978505  1492  1  255
-2,21543722520762  -1,98583292623351  1497  1  255
-2,20322423058134  -1,97361993160723  1503  1  255
-2,19101123595506  -1,95896433805569  1508  1  255
-2,17635564240352  -1,94675134342941  1513  1  255
-2,16414264777724  -1,93209574987787  1518  1  255
-2,15192965315095  -1,91988275525159  1523  1  255
-2,13971665852467  -1,90522716170005  1528  1  255
-2,12750366389839  -1,89057156814851  1533  1  255
-2,11529066927211  -1,87835857352223  1538  1  255
-2,10063507572057  -1,86370297997069  1543  1  255
-2,08842208109428  -1,84904738641915  1548  1  255
-2,076209086468  -1,83439179286761  1553  1  255
-2,06155349291646  -1,82217879824133  1558  1  255
-2,04934049829018  -1,80752320468979  1563  1  255
-2,03468490473864  -1,79286761113825  1568  1  255
-2,02247191011236  -1,77821201758671  1573  1  255
-2,00781631656082  -1,76355642403517  1578  1  255
-1,99560332193454  -1,74890083048363  1583  1  255
-1,980947728383  -1,7342452369321  1588  1  255
-1,96873473375672  -1,71958964338056  1593  1  255
-1,95407914020518  -1,70493404982902  1598  1  255
-1,93942354665364  -1,69027845627748  1603  1  255
-1,92721055202736  -1,67562286272594  1608  1  255
-1,91255495847582  -1,6609672691744  1613  1  255
-1,89789936492428  -1,64631167562286  1618  1  255
-1,88324377137274  -1,62921348314607  1623  1  255
-1,87103077674646  -1,61455788959453  1628  1  255
-1,85637518319492  -1,59990229604299  1633  1  255
-1,84171958964338  -1,58524670249145  1638  1  255
-1,82706399609184  -1,57059110893991  1643  1  255
-1,8124084025403  -1,55349291646312  1648  1  255
-1,79775280898876  -1,53883732291158  1653  1  255
-1,78309721543723  -1,52418172936004  1658  1  255
-1,76844162188569  -1,50708353688324  1663  1  255
-1,75378602833415  -1,4924279433317  1668  1  255
-1,73913043478261  -1,47532975085491  1673  1  255
-1,72447484123107  -1,46067415730337  1678  1  255
-1,70981924767953  -1,44357596482658  1683  1  255
-1,69516365412799  -1,42892037127504  1688  1  255
-1,68050806057645  -1,41182217879824  1693  1  255
-1,66340986809966  -1,3971665852467  1698  1  255
-1,64875427454812  -1,38006839276991  1703  1  255
-1,63409868099658  -1,36541279921837  1708  1  255
-1,61944308744504  -1,34831460674157  1713  1  255
-1,60234489496825  -1,33121641426478  1718  1  255
-1,58768930141671  -1,31656082071324  1724  1  255
-1,57303370786517  -1,29946262823644  1729  1  255
-1,55593551538837  -1,28236443575965  1734  1  255
-1,54127992183683  -1,26770884220811  1739  1  255
-1,52418172936004  -1,25061064973131  1744  1  255
-1,5095261358085  -1,23351245725452  1749  1  255
-1,4924279433317  -1,21641426477772  1754  1  255
-1,47777234978017  -1,20175867122618  1759  1  255
-1,46067415730337  -1,18466047874939  1764  1  255
-1,44601856375183  -1,16756228627259  1769  1  255
-1,42892037127504  -1,1504640937958  1774  1  255
-1,4142647777235  -1,133365901319  1779  1  255
-1,3971665852467  -1,11626770884221  1784  1  255
-1,38006839276991  -1,09916951636541  1789  1  255
-1,36541279921837  -1,08207132388862  1794  1  255
-1,34831460674157  -1,06497313141182  1799  1  255
-1,33121641426478  -1,05031753786028  1804  1  255
-1,31656082071324  -1,03321934538349  1809  1  255
-1,29946262823644  -1,01612115290669  1814  1  255
-1,28236443575965  -0,999022960429897  1819  1  255
-1,26526624328285  -0,979482169027846  1824  1  255
-1,25061064973131  -0,96238397655105  1829  1  255
-1,23351245725452  -0,945285784074255  1834  1  255
-1,21641426477772  -0,92818759159746  1839  1  255
-1,19931607230093  -0,911089399120664  1844  1  255
-1,18221787982413  -0,893991206643869  1849  1  255
-1,16511968734734  -0,876893014167074  1854  1  255
-1,14802149487054  -0,859794821690278  1859  1  255
-1,13092330239375  -0,842696629213483  1864  1  255
-1,11382510991695  -0,825598436736688  1869  1  255
-1,09672691744016  -0,806057645334636  1874  1  255
-1,07962872496336  -0,788959452857841  1879  1  255
-1,06253053248657  -0,771861260381045  1884  1  255
-1,04543234000977  -0,75476306790425  1889  1  255
-1,02833414753298  -0,735222276502198  1894  1  255
-1,01123595505618  -0,718124084025403  1899  1  255
-0,994137762579384  -0,701025891548608  1904  1  255
-0,977039570102589  -0,683927699071812  1909  1  255
-0,959941377625794  -0,664386907669761  1914  1  255
-0,942843185148998  -0,647288715192965  1919  1  255
-0,925744992672203  -0,63019052271617  1924  1  255
-0,908646800195408  -0,613092330239375  1929  1  255
-0,891548607718613  -0,593551538837323  1934  1  255
-0,872007816316561  -0,576453346360528  1939  1  255
-0,854909623839766  -0,559355153883732  1944  1  255
-0,83781143136297  -0,53981436248168  1949  1  255
-0,820713238886175  -0,522716170004885  1954  1  255
-0,80361504640938  -0,503175378602833  1959  1  255
-0,784074255007328  -0,486077186126038  1964  1  255
-0,766976062530532  -0,468978993649243  1969  1  255
-0,749877870053737  -0,449438202247191  1974  1  255
-0,732779677576942  -0,432340009770396  1979  1  255
-0,71323888617489  -0,4152418172936  1984  1  255
-0,696140693698095  -0,395701025891549  1989  1  255
-0,6790425012213  -0,378602833414753  1994  1  255
-0,659501709819248  -0,359062042012702  1999  1  255
-0,642403517342452  -0,341963849535906  2004  2  50
-0,625305324865657  -0,322423058133854  2010  2  50
-0,605764533463605  -0,305324865657059  2015  2  50
-0,58866634098681  -0,288226673180264  2020  2  50
-0,571568148510015  -0,268685881778212  2025  2  50
-0,552027357107963  -0,251587689301417  2030  2  50
-0,534929164631168  -0,232046897899365  2035  2  50
-0,517830972154372  -0,21494870542257  2040  2  50
-0,49829018075232  -0,195407914020518  2045  2  50
-0,481191988275525  -0,178309721543723  2050  2  50
-0,461651196873473  -0,158768930141671  2055  2  50
-0,444553004396678  -0,141670737664875  2060  2  50
-0,427454811919883  -0,122129946262824  2065  2  50
-0,407914020517831  -0,105031753786028  2070  2  50
-0,390815828041036  -0,0854909623839765  2075  2  50
-0,371275036638984  -0,0683927699071812  2080  2  50
-0,354176844162189  -0,0488519785051295  2085  2  50
-0,334636052760137  -0,0317537860283341  2090  2  50
-0,317537860283341  -0,0122129946262824  2095  2  50
-0,300439667806546  0,00244259892525647  2100  2  50
-0,280898876404494  0,0195407914020518  2105  2  50
-0,263800683927699  0,0390815828041036  2110  2  50
-0,244259892525647  0,0561797752808989  2115  2  50
-0,227161700048852  0,0757205666829507  2120  2  50
-0,2076209086468  0,092818759159746  2125  2  50
-0,190522716170005  0,112359550561798  2130  2  50
-0,170981924767953  0,129457743038593  2135  2  50
-0,153883732291158  0,148998534440645  2140  2  50
-0,134342940889106  0,16609672691744  2145  2  50
-0,117244748412311  0,185637518319492  2150  2  50
-0,0977039570102589  0,202735710796287  2155  2  50
-0,0806057645334636  0,222276502198339  2160  2  50
-0,0610649731314118  0,239374694675134  2165  2  50
-0,0439667806546165  0,258915486077186  2170  2  50
-0,0244259892525647  0,276013678553981  2175  2  50
-0,00732779677576942  0,295554469956033  2180  2  50
0,00977039570102589  0,312652662432829  2185  2  50
0,0268685881778212  0,329750854909624  2190  2  50
0,046409379579873  0,349291646311676  2195  2  50
0,0635075720566683  0,366389838788471  2200  2  50
0,0830483634587201  0,385930630190523  2205  2  50
0,100146555935515  0,403028822667318  2210  2  50
0,117244748412311  0,42256961406937  2215  2  50
0,136785539814362  0,439667806546165  2220  2  50
0,153883732291158  0,45676599902296  2225  2  50
0,17342452369321  0,476306790425012  2230  2  50
0,190522716170005  0,493404982901808  2235  2  50
0,210063507572057  0,512945774303859  2240  2  50
0,227161700048852  0,530043966780655  2245  2  50
0,246702491450904  0,54714215925745  2250  2  50
0,263800683927699  0,566682950659502  2255  2  50
0,283341475329751  0,583781143136297  2260  2  50
0,300439667806546  0,600879335613092  2265  2  50
0,317537860283341  0,620420127015144  2270  2  50
0,337078651685393  0,637518319491939  2275  2  50
0,354176844162189  0,654616511968735  2280  2  50
0,37371763556424  0,674157303370787  2285  2  50
0,390815828041036  0,691255495847582  2290  2  50
0,407914020517831  0,708353688324377  2295  2  50
0,427454811919883  0,725451880801172  2300  2  50
0,444553004396678  0,744992672203224  2305  2  50
0,46409379579873  0,76209086468002  2310  2  50
0,481191988275525  0,779189057156815  2315  2  50
0,49829018075232  0,79628724963361  2320  2  50
0,517830972154372  0,813385442110405  2325  2  50
0,534929164631168  0,832926233512457  2330  2  50
0,552027357107963  0,850024425989253  2335  2  50
0,571568148510015  0,867122618466048  2340  2  50
0,58866634098681  0,884220810942843  2346  2  50
0,605764533463605  0,901319003419638  2351  2  50
0,625305324865657  0,918417195896434  2356  2  50
0,642403517342452  0,935515388373229  2361  2  50
0,659501709819248  0,952613580850024  2366  2  50
0,676599902296043  0,972154372252076  2371  2  50
0,696140693698095  0,989252564728871  2376  2  50
0,71323888617489  1,00635075720567  2381  2  50
0,730337078651685  1,02344894968246  2386  2  50
0,747435271128481  1,04054714215926  2391  2  50
0,766976062530532  1,05764533463605  2396  2  50
0,784074255007328  1,07474352711285  2401  2  50
0,801172447484123  1,09184171958964  2406  2  50
0,818270639960918  1,10893991206644  2411  2  50
0,835368832437714  1,12359550561798  2416  2  50
0,852467024914509  1,14069369809477  2421  2  50
0,869565217391304  1,15779189057157  2426  2  50
0,8866634098681  1,17489008304836  2431  2  50
0,906204201270151  1,19198827552516  2436  2  50
0,923302393746947  1,20908646800195  2441  2  50
0,940400586223742  1,22618466047875  2446  2  50
0,957498778700537  1,24084025403029  2451  2  50
0,974596971177333  1,25793844650708  2456  2  50
0,991695163654128  1,27503663898388  2461  2  50
1,00879335613092  1,29213483146067  2466  2  50
1,02589154860772  1,30679042501221  2471  2  50
1,04298974108451  1,32388861748901  2476  2  50
1,06008793356131  1,3409868099658  2481  2  50
1,07474352711285  1,35564240351734  2486  2  50
1,09184171958964  1,37274059599414  2491  2  50
1,10893991206644  1,38739618954568  2496  2  50
1,12603810454323  1,40449438202247  2501  2  50
1,14313629702003  1,42159257449927  2506  2  50
1,16023448949682  1,43624816805081  2511  2  50
1,17733268197362  1,4533463605276  2516  2  50
1,19198827552516  1,46800195407914  2521  2  50
1,20908646800195  1,48510014655594  2526  2  50
1,22618466047875  1,49975574010747  2531  2  50
1,24328285295554  1,51441133365901  2536  2  50
1,25793844650708  1,53150952613581  2541  2  50
1,27503663898388  1,54616511968735  2546  2  50
1,29213483146067  1,56082071323889  2551  2  50
1,30679042501221  1,57791890571568  2556  2  50
1,32388861748901  1,59257449926722  2561  2  50
1,33854421104055  1,60723009281876  2567  2  50
1,35564240351734  1,62432828529555  2572  2  50
1,37274059599414  1,63898387884709  2577  2  50
1,38739618954568  1,65363947239863  2582  2  50
1,40449438202247  1,66829506595017  2587  2  50
1,41914997557401  1,68295065950171  2592  2  50
1,43624816805081  1,69760625305325  2597  2  50
1,45090376160234  1,71226184660479  2602  2  50
1,46555935515388  1,72691744015633  2607  2  50
1,48265754763068  1,74157303370787  2612  2  50
1,49731314118222  1,7562286272594  2617  2  50
1,51196873473376  1,77088422081094  2622  2  50
1,52906692721055  1,78553981436248  2627  2  50
1,54372252076209  1,80019540791402  2632  2  50
1,55837811431363  1,81485100146556  2637  2  50
1,57547630679042  1,8295065950171  2642  2  50
1,59013190034196  1,84416218856864  2647  2  50
1,6047874938935  1,85881778212018  2652  2  50
1,61944308744504  1,87103077674646  2657  2  50
1,63409868099658  1,885686370298  2662  2  50
1,64875427454812  1,90034196384954  2667  2  50
1,66340986809966  1,91255495847582  2672  2  50
1,6780654616512  1,92721055202736  2677  2  50
1,69272105520274  1,9418661455789  2682  2  50
1,70737664875427  1,95407914020518  2687  2  50
1,72203224230581  1,96873473375672  2692  2  50
1,73668783585735  1,980947728383  2697  2  50
1,75134342940889  1,99560332193454  2702  2  50
1,76599902296043  2,00781631656082  2707  2  50
1,78065461651197  2,02247191011236  2712  2  50
1,79531021006351  2,03468490473864  2717  2  50
1,80996580361505  2,04689789936492  2722  2  50
1,82217879824133  2,06155349291646  2727  2  50
1,83683439179287  2,07376648754275  2732  2  50
1,85148998534441  2,08597948216903  2737  2  50
1,86370297997069  2,09819247679531  2742  2  50
1,87835857352223  2,11284807034685  2747  2  50
1,89301416707377  2,12506106497313  2752  2  50
1,90522716170005  2,13727405959941  2757  2  50
1,91988275525159  2,1494870542257  2762  2  50
1,93209574987787  2,16170004885198  2767  2  50
1,94675134342941  2,17391304347826  2772  2  50
1,95896433805569  2,18612603810454  2777  2  50
1,97361993160723  2,19833903273083  2782  2  50
1,98583292623351  2,21055202735711  2787  2  50
1,99804592085979  2,22276502198339  2792  2  50
2,01270151441133  2,23253541768442  2797  2  50
2,02491450903762  2,2447484123107  2802  2  50
2,0371275036639  2,25696140693698  2807  2  50
2,04934049829018  2,26917440156326  2812  2  50
2,06155349291646  2,27894479726429  2817  2  50
2,076209086468  2,29115779189057  2822  2  50
2,08842208109428  2,30337078651685  2827  2  50
2,10063507572057  2,31314118221788  2832  2  50
2,11284807034685  2,32535417684416  2837  2  50
2,12506106497313  2,33512457254519  2842  2  50
2,13727405959941  2,34733756717147  2847  2  50
2,1494870542257  2,3571079628725  2852  2  50
2,16170004885198  2,36932095749878  2857  2  50
2,171470444553  2,3790913531998  2862  2  50
2,18368343917929  2,38886174890083  2867  2  50
2,19589643380557  2,39863214460186  2872  2  50
2,20810942843185  2,41084513922814  2877  2  50
2,22032242305813  2,42061553492916  2882  2  50
2,23009281875916  2,43038593063019  2887  2  50
2,24230581338544  2,44015632633122  2892  2  50
2,25207620908647  2,44992672203224  2897  2  50
2,26428920371275  2,45969711773327  2902  2  50
2,27650219833903  2,46946751343429  2907  2  50
2,28627259404006  2,47923790913532  2912  2  50
2,29848558866634  2,48900830483635  2917  2  50
2,30825598436737  2,49877870053737  2922  2  50
2,31802638006839  2,5085490962384  2927  2  50
2,33023937469468  2,51831949193942  2932  2  50
2,3400097703957  2,52564728871519  2937  2  50
2,34978016609673  2,53541768441622  2942  2  50
2,35955056179775  2,54518808011724  2947  2  50
2,37176355642403  2,55251587689301  2952  2  50
2,38153395212506  2,56228627259404  2957  2  50
2,39130434782609  2,57205666829507  2962  2  50
2,40107474352711  2,57938446507084  2967  2  50
2,41084513922814  2,58915486077186  2972  2  50
2,42061553492916  2,59648265754763  2977  2  50
2,43038593063019  2,6038104543234  2982  2  50
2,44015632633122  2,61358085002443  2987  2  50
2,44992672203224  2,6209086468002  2992  2  50
2,45969711773327  2,62823644357596  2997  2  50
2,46702491450904  2,63556424035173  3002  2  50
2,47679531021006  2,64533463605276  3007  3  80
2,48656570591109  2,65266243282853  3013  3  80
2,49389350268686  2,6599902296043  3018  3  80
2,50366389838788  2,66731802638007  3023  3  80
2,51343429408891  2,67464582315584  3028  3  80
2,52076209086468  2,68197361993161  3033  3  80
2,53053248656571  2,68930141670738  3038  3  80
2,53786028334148  2,69662921348315  3043  3  80
2,5476306790425  2,70151441133366  3048  3  80
2,55495847581827  2,70884220810943  3053  3  80
2,56228627259404  2,7161700048852  3058  3  80
2,57205666829507  2,72349780166097  3063  3  80
2,57938446507084  2,72838299951148  3068  3  80
2,5867122618466  2,73571079628725  3073  3  80
2,59404005862237  2,74059599413776  3078  3  80
2,60136785539814  2,74792379091353  3083  3  80
2,60869565217391  2,75280898876404  3088  3  80
2,61602344894968  2,76013678553981  3093  3  80
2,62335124572545  2,76502198339033  3098  3  80
2,63067904250122  2,7723497801661  3103  3  80
2,63800683927699  2,77723497801661  3108  3  80
2,64533463605276  2,78212017586712  3113  3  80
2,65266243282853  2,78700537371764  3118  3  80
2,6599902296043  2,79433317049341  3123  3  80
2,66731802638007  2,79921836834392  3128  3  80
2,67220322423058  2,80410356619443  3133  3  80
2,67953102100635  2,80898876404494  3138  3  80
2,68441621885686  2,81387396189546  3143  3  80
2,69174401563263  2,81875915974597  3148  3  80
2,6990718124084  2,82364435759648  3153  3  80
2,70395701025892  2,82608695652174  3158  3  80
2,70884220810943  2,83097215437225  3163  3  80
2,7161700048852  2,83585735222277  3168  3  80
2,72105520273571  2,84074255007328  3173  3  80
2,72594040058622  2,84318514899853  3178  3  80
2,73326819736199  2,84807034684905  3183  3  80
2,73815339521251  2,85295554469956  3188  3  80
2,74303859306302  2,85539814362482  3193  3  80
2,74792379091353  2,86028334147533  3198  3  80
2,75280898876404  2,86272594040059  3203  3  80
2,75769418661456  2,86516853932584  3208  4  10
2,76257938446507  2,87005373717636  3213  4  10
2,76746458231558  2,87249633610161  3218  4  10
2,7723497801661  2,87493893502687  3223  4  10
2,77723497801661  2,87738153395212  3228  4  10
2,78212017586712  2,88226673180264  3233  4  10
2,78456277479238  2,88470933072789  3238  4  10
2,78944797264289  2,88715192965315  3243  4  10
2,79433317049341  2,88959452857841  3248  4  10
2,79677576941866  2,89203712750366  3253  4  10
2,80166096726917  2,89447972642892  3258  4  10
2,80410356619443  2,89447972642892  3263  4  10
2,80898876404494  2,89692232535418  3268  4  10
2,8114313629702  2,89936492427943  3273  4  10
2,81631656082071  2,90180752320469  3278  4  10
2,81875915974597  2,90425012212995  3283  4  10
2,82120175867123  2,90425012212995  3288  4  10
2,82608695652174  2,9066927210552  3293  4  10
2,828529555447  2,9066927210552  3298  4  10
2,83097215437225  2,90913531998046  3303  4  10
2,83341475329751  2,90913531998046  3308  4  10
2,83585735222277  2,91157791890572  3313  4  10
2,83829995114802  2,91157791890572  3318  4  10
2,84074255007328  2,91157791890572  3323  4  10
2,84318514899853  2,91402051783097  3328  4  10
2,84562774792379  2,91402051783097  3333  4  10
2,84807034684905  2,91402051783097  3338  4  10
2,84807034684905  2,91402051783097  3343  4  10
2,8505129457743  2,91402051783097  3348  4  10
2,85295554469956  2,91402051783097  3353  4  10
2,85539814362482  2,91402051783097  3358  4  10
2,85539814362482  2,91402051783097  3363  4  10
2,85784074255007  2,91402051783097  3368  4  10
2,85784074255007  2,91402051783097  3373  4  10
2,86028334147533  2,91402051783097  3378  4  10
2,86028334147533  2,91157791890572  3383  4  10
2,86028334147533  2,91157791890572  3388  4  10
2,86272594040059  2,91157791890572  3393  4  10
2,86272594040059  2,90913531998046  3398  4  10
2,86272594040059  2,90913531998046  3403  4  10
2,86272594040059  2,9066927210552  3408  4  10
2,86272594040059  2,9066927210552  3413  4  10
2,86272594040059  2,90425012212995  3418  4  10
2,86272594040059  2,90425012212995  3423  4  10
2,86272594040059  2,90180752320469  3428  4  10
2,86272594040059  2,89936492427943  3433  4  10
2,86272594040059  2,89692232535418  3438  4  10
2,86272594040059  2,89692232535418  3443  4  10
2,86272594040059  2,89447972642892  3448  4  10
2,86272594040059  2,89203712750366  3453  4  10
2,86028334147533  2,88959452857841  3458  4  10
2,86028334147533  2,88715192965315  3463  4  10
2,86028334147533  2,88470933072789  3468  4  10
2,85784074255007  2,88226673180264  3473  4  10
2,85784074255007  2,87982413287738  3478  4  10
2,85539814362482  2,87493893502687  3483  4  10
2,85539814362482  2,87249633610161  3488  4  10
2,85295554469956  2,87005373717636  3493  4  10
2,8505129457743  2,8676111382511  3498  4  10
2,84807034684905  2,86272594040059  3503  4  10
2,84807034684905  2,86028334147533  3508  4  10
2,84562774792379  2,85539814362482  3513  4  10
2,84318514899853  2,85295554469956  3518  4  10
2,84074255007328  2,84807034684905  3523  4  10
2,83829995114802  2,84562774792379  3528  4  10
2,83585735222277  2,84074255007328  3533  4  10
2,83341475329751  2,83585735222277  3538  4  10
2,83097215437225  2,83341475329751  3543  4  10
2,828529555447  2,828529555447  3548  4  10
2,82608695652174  2,82364435759648  3553  4  10
2,82120175867123  2,81875915974597  3558  4  10
2,81875915974597  2,81387396189546  3564  4  10
2,81631656082071  2,80898876404494  3569  4  10
2,8114313629702  2,80410356619443  3574  4  10
2,80898876404494  2,79921836834392  3579  4  10
2,80410356619443  2,79433317049341  3584  4  10
2,80166096726917  2,78944797264289  3589  4  10
2,79677576941866  2,78456277479238  3594  4  10
2,79433317049341  2,77723497801661  3599  4  10
2,78944797264289  2,7723497801661  3604  4  10
2,78456277479238  2,76746458231558  3609  4  10
2,78212017586712  2,76013678553981  3614  4  10
2,77723497801661  2,7552515876893  3619  4  10
2,7723497801661  2,75036638983879  3624  4  10
2,76746458231558  2,74303859306302  3629  4  10
2,76257938446507  2,73571079628725  3634  4  10
2,75769418661456  2,73082559843674  3639  4  10
2,75280898876404  2,72349780166097  3644  4  10
2,74792379091353  2,71861260381045  3649  4  10
2,74303859306302  2,71128480703468  3654  4  10
2,73815339521251  2,70395701025892  3659  4  10
2,73326819736199  2,69662921348315  3664  4  10
2,72594040058622  2,68930141670738  3669  4  10
2,72105520273571  2,68197361993161  3674  4  10
2,7161700048852  2,67708842208109  3679  4  10
2,70884220810943  2,66976062530533  3684  4  10
2,70395701025892  2,66243282852956  3689  4  10
2,6990718124084  2,65266243282853  3694  4  10
2,69174401563263  2,64533463605276  3699  4  10
2,68441621885686  2,63800683927699  3704  4  10
2,67953102100635  2,63067904250122  3709  4  10
2,67220322423058  2,62335124572545  3714  4  10
2,66731802638007  2,61358085002443  3719  4  10
2,6599902296043  2,60625305324866  3724  4  10
2,65266243282853  2,59892525647289  3729  4  10
2,64533463605276  2,58915486077186  3734  4  10
2,63800683927699  2,58182706399609  3739  4  10
2,63067904250122  2,57205666829507  3744  4  10
2,62335124572545  2,5647288715193  3749  4  10
2,61602344894968  2,55495847581827  3754  4  10
2,60869565217391  2,5476306790425  3759  4  10
2,60136785539814  2,53786028334148  3764  4  10
2,59404005862237  2,52808988764045  3769  4  10
2,5867122618466  2,52076209086468  3774  4  10
2,57938446507084  2,51099169516365  3779  4  10
2,57205666829507  2,50122129946263  3784  4  10
2,56228627259404  2,4914509037616  3789  4  10
2,55495847581827  2,48168050806058  3794  4  10
2,5476306790425  2,47191011235955  3799  4  10
2,53786028334148  2,46213971665852  3804  4  10
2,53053248656571  2,4523693209575  3809  4  10
2,52076209086468  2,44259892525647  3814  4  10
2,51343429408891  2,43282852955545  3819  4  10
2,50366389838788  2,42305813385442  3824  4  10
2,49389350268686  2,4132877381534  3829  4  10
2,48656570591109  2,40107474352711  3834  4  10
2,47679531021006  2,39130434782609  3839  4  10
2,46702491450904  2,38153395212506  3844  4  10
2,45969711773327  2,37176355642403  3849  4  10
2,44992672203224  2,35955056179775  3854  4  10
2,44015632633122  2,34978016609673  3859  4  10
2,43038593063019  2,33756717147044  3864  4  10
2,42061553492916  2,32779677576942  3869  4  10
2,41084513922814  2,31558378114314  3874  4  10
2,40107474352711  2,30581338544211  3879  4  10
2,39130434782609  2,29360039081583  3884  4  10
2,38153395212506  2,28138739618955  3889  4  10
2,37176355642403  2,27161700048852  3894  4  10
2,35955056179775  2,25940400586224  3899  4  10
2,34978016609673  2,24719101123596  3904  4  10
2,3400097703957  2,23742061553493  3909  4  10
2,33023937469468  2,22520762090865  3914  4  10
2,31802638006839  2,21299462628236  3919  4  10
2,30825598436737  2,20078163165608  3924  4  10
2,29848558866634  2,1885686370298  3929  4  10
2,28627259404006  2,17635564240352  3934  4  10
2,27650219833903  2,16414264777724  3939  4  10
2,26428920371275  2,15192965315095  3944  4  10
2,25207620908647  2,13971665852467  3949  4  10
2,24230581338544  2,12750366389839  3954  4  10
2,23009281875916  2,11529066927211  3959  4  10
2,22032242305813  2,10307767464582  3964  4  10
2,20810942843185  2,08842208109428  3969  4  10
2,19589643380557  2,076209086468  3974  4  10
2,18368343917929  2,06399609184172  3979  4  10
2,171470444553  2,05178309721544  3984  4  10
2,16170004885198  2,0371275036639  3989  4  10
2,1494870542257  2,02491450903762  3994  4  10
2,13727405959941  2,01025891548608  3999  4  10
2,12506106497313  1,99804592085979  4004  4  10
2,11284807034685  1,98583292623351  4009  4  10
2,10063507572057  1,97117733268197  4014  4  10
2,08842208109428  1,95652173913043  4019  4  10
2,076209086468  1,94430874450415  4024  4  10
2,06155349291646  1,92965315095261  4029  4  10
2,04934049829018  1,91744015632633  4034  4  10
2,0371275036639  1,90278456277479  4039  4  10
2,02491450903762  1,88812896922325  4044  4  10
2,01270151441133  1,87591597459697  4049  4  10
1,99804592085979  1,86126038104543  4054  4  10
1,98583292623351  1,84660478749389  4059  4  10
1,97361993160723  1,83194919394235  4064  4  10
1,95896433805569  1,81729360039082  4069  4  10
1,94675134342941  1,80508060576453  4074  4  10
1,93209574987787  1,79042501221299  4079  4  10
1,91988275525159  1,77576941866146  4084  4  10
1,90522716170005  1,76111382510992  4089  4  10
1,89301416707377  1,74645823155838  4094  4  10
1,87835857352223  1,73180263800684  4099  4  10
1,86370297997069  1,7171470444553  4104  4  10
1,85148998534441  1,70249145090376  4109  4  10
1,83683439179287  1,68783585735222  4114  4  10
1,82217879824133  1,67073766487543  4119  4  10
1,80996580361505  1,65608207132389  4124  4  10
1,79531021006351  1,64142647777235  4129  4  10
1,78065461651197  1,62677088422081  4134  4  10
1,76599902296043  1,61211529066927  4139  4  10
1,75134342940889  1,59501709819248  4144  4  10
1,73668783585735  1,58036150464094  4149  4  10
1,72203224230581  1,5657059110894  4154  4  10
1,70737664875427  1,55105031753786  4159  4  10
1,69272105520274  1,53395212506106  4164  4  10
1,6780654616512  1,51929653150953  4169  4  10
1,66340986809966  1,50219833903273  4175  4  10
1,64875427454812  1,48754274548119  4180  4  10
1,63409868099658  1,47288715192965  4185  4  10
1,61944308744504  1,45578895945286  4190  4  10
1,6047874938935  1,44113336590132  4195  4  10
1,59013190034196  1,42403517342452  4200  4  10
1,57547630679042  1,40937957987298  4205  4  10
1,55837811431363  1,39228138739619  4210  5  255
1,54372252076209  1,37518319491939  4215  5  255
1,52906692721055  1,36052760136786  4220  5  255
1,51196873473376  1,34342940889106  4225  5  255
1,49731314118222  1,32633121641426  4230  5  255
1,48265754763068  1,31167562286273  4235  5  255
1,46555935515388  1,29457743038593  4240  5  255
1,45090376160234  1,27747923790914  4245  5  255
1,43624816805081  1,2628236443576  4250  5  255
1,41914997557401  1,2457254518808  4255  5  255
1,40449438202247  1,22862725940401  4260  5  255
1,38739618954568  1,21152906692721  4265  5  255
1,37274059599414  1,19443087445042  4270  5  255
1,35564240351734  1,17977528089888  4275  5  255
1,33854421104055  1,16267708842208  4280  5  255
1,32388861748901  1,14557889594529  4285  5  255
1,30679042501221  1,12848070346849  4290  5  255
1,29213483146067  1,1113825109917  4295  5  255
1,27503663898388  1,0942843185149  4300  5  255
1,25793844650708  1,0771861260381  4305  5  255
1,24328285295554  1,06008793356131  4310  5  255
1,22618466047875  1,04298974108451  4315  5  255
1,20908646800195  1,02589154860772  4320  5  255
1,19198827552516  1,00879335613092  4325  5  255
1,17733268197362  0,991695163654128  4330  5  255
1,16023448949682  0,974596971177333  4335  5  255
1,14313629702003  0,957498778700537  4340  5  255
1,12603810454323  0,940400586223742  4345  5  255
1,10893991206644  0,923302393746947  4350  5  255
1,09184171958964  0,906204201270151  4355  5  255
1,07474352711285  0,889106008793356  4360  5  255
1,06008793356131  0,872007816316561  4365  5  255
1,04298974108451  0,852467024914509  4370  5  255
1,02589154860772  0,835368832437714  4375  5  255
1,00879335613092  0,818270639960918  4380  5  255
0,991695163654128  0,801172447484123  4385  5  255
0,974596971177333  0,784074255007328  4390  5  255
0,957498778700537  0,764533463605276  4395  5  255
0,940400586223742  0,747435271128481  4400  5  255
0,923302393746947  0,730337078651685  4405  5  255
0,906204201270151  0,71323888617489  4410  5  255
0,8866634098681  0,693698094772838  4415  5  255
0,869565217391304  0,676599902296043  4420  5  255
0,852467024914509  0,659501709819248  4425  5  255
0,835368832437714  0,642403517342452  4430  5  255
0,818270639960918  0,622862725940401  4435  5  255
0,801172447484123  0,605764533463605  4440  5  255
0,784074255007328  0,58866634098681  4445  5  255
0,766976062530532  0,569125549584758  4450  5  255
0,747435271128481  0,552027357107963  4455  5  255
0,730337078651685  0,534929164631168  4460  5  255
0,71323888617489  0,515388373229116  4465  5  255
0,696140693698095  0,49829018075232  4470  5  255
0,676599902296043  0,478749389350269  4475  5  255
0,659501709819248  0,461651196873473  4480  5  255
0,642403517342452  0,444553004396678  4485  5  255
0,625305324865657  0,425012212994626  4490  5  255
0,605764533463605  0,407914020517831  4495  5  255
0,58866634098681  0,388373229115779  4500  5  255
0,571568148510015  0,371275036638984  4505  5  255
0,552027357107963  0,354176844162189  4510  5  255
0,534929164631168  0,334636052760137  4515  5  255
0,517830972154372  0,317537860283341  4520  5  255
0,49829018075232  0,29799706888129  4525  5  255
0,481191988275525  0,280898876404494  4530  5  255
0,46409379579873  0,261358085002443  4537  5  255
0,444553004396678  0,244259892525647  4542  5  255
0,427454811919883  0,224719101123595  4547  5  255
0,407914020517831  0,2076209086468  4552  5  255
0,390815828041036  0,188080117244748  4557  5  255
0,37371763556424  0,170981924767953  4562  5  255
0,354176844162189  0,153883732291158  4567  5  255
0,337078651685393  0,134342940889106  4572  5  255
0,317537860283341  0,117244748412311  4577  5  255
0,300439667806546  0,0977039570102589  4582  5  255
0,283341475329751  0,0806057645334636  4587  5  255
0,263800683927699  0,0610649731314118  4592  5  255
0,246702491450904  0,0439667806546165  4597  5  255
0,227161700048852  0,0244259892525647  4602  5  255
0,210063507572057  0,00732779677576942  4607  5  255
0,190522716170005  -0,00977039570102589  4612  5  255
0,17342452369321  -0,0268685881778212  4617  5  255
0,153883732291158  -0,046409379579873  4622  5  255
0,136785539814362  -0,0635075720566683  4627  5  255
0,117244748412311  -0,0830483634587201  4632  5  255
0,100146555935515  -0,100146555935515  4637  5  255
0,0830483634587201  -0,119687347337567  4642  5  255
0,0635075720566683  -0,136785539814362  4647  5  255
0,046409379579873  -0,156326331216414  4652  5  255
0,0268685881778212  -0,17342452369321  4657  5  255
0,00977039570102589  -0,192965315095261  4662  5  255
-0,00732779677576942  -0,210063507572057  4667  5  255
-0,0244259892525647  -0,229604298974108  4672  5  255
-0,0439667806546165  -0,246702491450904  4677  5  255
-0,0610649731314118  -0,263800683927699  4682  5  255
-0,0806057645334636  -0,283341475329751  4687  5  255
-0,0977039570102589  -0,300439667806546  4692  5  255
-0,117244748412311  -0,319980459208598  4697  5  255
-0,134342940889106  -0,337078651685393  4702  5  255
-0,153883732291158  -0,356619443087445  4707  5  255
-0,170981924767953  -0,37371763556424  4714  5  255
-0,190522716170005  -0,390815828041036  4719  5  255
-0,2076209086468  -0,410356619443087  4724  5  255
-0,227161700048852  -0,427454811919883  4729  5  255
-0,244259892525647  -0,446995603321935  4734  5  255
-0,263800683927699  -0,46409379579873  4739  5  255
-0,280898876404494  -0,481191988275525  4744  5  255
-0,300439667806546  -0,500732779677577  4749  5  255
-0,317537860283341  -0,517830972154372  4754  5  255
-0,334636052760137  -0,537371763556424  4759  5  255
-0,354176844162189  -0,554469956033219  4764  5  255
-0,371275036638984  -0,571568148510015  4769  5  255
-0,390815828041036  -0,591108939912066  4774  5  255
-0,407914020517831  -0,608207132388862  4779  5  255
-0,427454811919883  -0,625305324865657  4784  5  255
-0,444553004396678  -0,644846116267709  4789  5  255
-0,461651196873473  -0,661944308744504  4794  5  255
-0,481191988275525  -0,6790425012213  4799  5  255
-0,49829018075232  -0,696140693698095  4804  5  255
-0,517830972154372  -0,715681485100147  4809  5  255
-0,534929164631168  -0,732779677576942  4814  5  255
-0,552027357107963  -0,749877870053737  4819  5  255
-0,571568148510015  -0,766976062530532  4824  5  255
-0,58866634098681  -0,786516853932584  4829  5  255
-0,605764533463605  -0,80361504640938  4834  5  255
-0,625305324865657  -0,820713238886175  4839  5  255
-0,642403517342452  -0,83781143136297  4844  5  255
-0,659501709819248  -0,854909623839766  4849  5  255
-0,6790425012213  -0,872007816316561  4854  5  255
-0,696140693698095  -0,891548607718613  4859  5  255
-0,71323888617489  -0,908646800195408  4864  5  255
-0,732779677576942  -0,925744992672203  4869  5  255
-0,749877870053737  -0,942843185148998  4874  5  255
-0,766976062530532  -0,959941377625794  4879  5  255
-0,784074255007328  -0,977039570102589  4886  5  255
-0,80361504640938  -0,994137762579384  4891  5  255
-0,820713238886175  -1,01123595505618  4896  5  255
-0,83781143136297  -1,02833414753298  4901  5  255
-0,854909623839766  -1,04543234000977  4906  5  255
-0,872007816316561  -1,06253053248657  4911  5  255
-0,891548607718613  -1,07962872496336  4916  5  255
-0,908646800195408  -1,09672691744016  4921  5  255
-0,925744992672203  -1,11382510991695  4926  5  255
-0,942843185148998  -1,13092330239375  4931  5  255
-0,959941377625794  -1,14802149487054  4936  5  255
-0,977039570102589  -1,16267708842208  4941  5  255
-0,994137762579384  -1,17977528089888  4946  5  255
-1,01123595505618  -1,19687347337567  4951  5  255
-1,02833414753298  -1,21397166585247  4956  5  255
-1,04543234000977  -1,23106985832926  4961  5  255
-1,06253053248657  -1,2457254518808  4966  5  255
-1,07962872496336  -1,2628236443576  4971  5  255
-1,09672691744016  -1,27992183683439  4976  5  255
-1,11382510991695  -1,29702002931119  4981  5  255
-1,13092330239375  -1,31167562286273  4986  5  255
-1,14802149487054  -1,32877381533952  4991  5  255
-1,16511968734734  -1,34587200781632  4996  5  255
-1,18221787982413  -1,36052760136786  5001  5  255
-1,19931607230093  -1,37762579384465  5006  5  255
-1,21641426477772  -1,39228138739619  5011  5  255
-1,23351245725452  -1,40937957987298  5016  5  255
-1,25061064973131  -1,42403517342452  5021  5  255
-1,26526624328285  -1,44113336590132  5026  5  255
-1,28236443575965  -1,45578895945286  5031  5  255
-1,29946262823644  -1,47288715192965  5036  5  255
-1,31656082071324  -1,48754274548119  5041  5  255
-1,33121641426478  -1,50464093795799  5046  5  255
-1,34831460674157  -1,51929653150953  5053  5  255
-1,36541279921837  -1,53395212506106  5058  5  255
-1,38006839276991  -1,55105031753786  5063  5  255
-1,3971665852467  -1,5657059110894  5068  5  255
-1,4142647777235  -1,58036150464094  5073  5  255
-1,42892037127504  -1,59745969711773  5078  5  255
-1,44601856375183  -1,61211529066927  5083  5  255
-1,46067415730337  -1,62677088422081  5088  5  255
-1,47777234978017  -1,64142647777235  5093  5  255
-1,4924279433317  -1,65608207132389  5098  5  255
-1,5095261358085  -1,67318026380068  5103  5  255
-1,52418172936004  -1,68783585735222  5108  5  255
-1,54127992183683  -1,70249145090376  5113  5  255
-1,55593551538837  -1,7171470444553  5118  5  255
-1,57303370786517  -1,73180263800684  5123  5  255
-1,58768930141671  -1,74645823155838  5128  5  255
-1,60234489496825  -1,76111382510992  5133  5  255
-1,61944308744504  -1,77576941866146  5138  5  255
-1,63409868099658  -1,79042501221299  5143  5  255
-1,64875427454812  -1,80263800683928  5148  5  255
-1,66340986809966  -1,81729360039082  5153  5  255
-1,68050806057645  -1,83194919394235  5158  5  255
-1,69516365412799  -1,84660478749389  5163  5  255
-1,70981924767953  -1,86126038104543  5168  5  255
-1,72447484123107  -1,87347337567171  5173  5  255
-1,73913043478261  -1,88812896922325  5178  5  255
-1,75378602833415  -1,90278456277479  5183  5  255
-1,76844162188569  -1,91499755740107  5188  5  255
-1,78309721543723  -1,92965315095261  5193  5  255
-1,79775280898876  -1,94430874450415  5198  5  255
-1,8124084025403  -1,95652173913043  5203  5  255
-1,82706399609184  -1,97117733268197  5208  5  255
-1,84171958964338  -1,98339032730826  5215  6  50
-1,85637518319492  -1,99804592085979  5221  6  50
-1,87103077674646  -2,01025891548608  5226  6  50
-1,88324377137274  -2,02247191011236  5231  6  50
-1,89789936492428  -2,0371275036639  5236  6  50
-1,91255495847582  -2,04934049829018  5241  6  50
-1,92721055202736  -2,06155349291646  5246  6  50
-1,93942354665364  -2,076209086468  5251  6  50
-1,95407914020518  -2,08842208109428  5256  6  50
-1,96873473375672  -2,10063507572057  5261  6  50
-1,980947728383  -2,11284807034685  5266  6  50
-1,99560332193454  -2,12506106497313  5271  6  50
-2,00781631656082  -2,13727405959941  5276  6  50
-2,02247191011236  -2,1494870542257  5281  6  50
-2,03468490473864  -2,16170004885198  5286  6  50
-2,04934049829018  -2,17391304347826  5291  6  50
-2,06155349291646  -2,18612603810454  5296  6  50
-2,076209086468  -2,19833903273083  5301  6  50
-2,08842208109428  -2,21055202735711  5306  6  50
-2,10063507572057  -2,22276502198339  5311  6  50
-2,11529066927211  -2,23497801660967  5316  6  50
-2,12750366389839  -2,2447484123107  5321  6  50
-2,13971665852467  -2,25696140693698  5326  6  50
-2,15192965315095  -2,26917440156326  5331  6  50
-2,16414264777724  -2,27894479726429  5336  6  50
-2,17635564240352  -2,29115779189057  5341  6  50
-2,19101123595506  -2,30337078651685  5346  6  50
-2,20322423058134  -2,31314118221788  5351  6  50
-2,21543722520762  -2,32535417684416  5356  6  50
-2,2276502198339  -2,33512457254519  5361  6  50
-2,23742061553493  -2,34489496824621  5366  6  50
-2,24963361016121  -2,3571079628725  5373  6  50
-2,26184660478749  -2,36687835857352  5378  6  50
-2,27405959941378  -2,3790913531998  5383  6  50
-2,28627259404006  -2,38886174890083  5388  6  50
-2,29848558866634  -2,39863214460186  5393  6  50
-2,30825598436737  -2,40840254030288  5398  6  50
-2,32046897899365  -2,41817293600391  5403  6  50
-2,33268197361993  -2,42794333170493  5408  6  50
-2,34245236932096  -2,44015632633122  5413  6  50
-2,35466536394724  -2,44992672203224  5418  6  50
-2,36443575964827  -2,45969711773327  5423  6  50
-2,37664875427455  -2,46946751343429  5428  6  50
-2,38641914997557  -2,47679531021006  5433  6  50
-2,39863214460186  -2,48656570591109  5438  6  50
-2,40840254030288  -2,49633610161212  5443  6  50
-2,41817293600391  -2,50610649731314  5448  6  50
-2,43038593063019  -2,51587689301417  5453  6  50
-2,44015632633122  -2,52320468978994  5458  6  50
-2,44992672203224  -2,53297508549096  5463  6  50
-2,45969711773327  -2,54274548119199  5468  6  50
-2,47191011235955  -2,55007327796776  5473  6  50
-2,48168050806058  -2,55984367366878  5478  6  50
-2,4914509037616  -2,56717147044455  5483  6  50
-2,50122129946263  -2,57694186614558  5488  6  50
-2,51099169516365  -2,58426966292135  5493  6  50
-2,52076209086468  -2,59404005862237  5498  6  50
-2,53053248656571  -2,60136785539814  5503  6  50
-2,53786028334148  -2,60869565217391  5508  6  50
-2,5476306790425  -2,61846604787494  5513  6  50
-2,55740107474353  -2,62579384465071  5518  6  50
-2,56717147044455  -2,63312164142648  5526  6  50
-2,57694186614558  -2,64044943820225  5531  6  50
-2,58426966292135  -2,64777723497802  5536  6  50
-2,59404005862237  -2,65510503175379  5541  6  50
-2,60136785539814  -2,66243282852956  5546  6  50
-2,61113825109917  -2,66976062530533  5551  6  50
-2,6209086468002  -2,67708842208109  5556  6  50
-2,62823644357596  -2,68441621885686  5561  6  50
-2,63556424035173  -2,69174401563263  5566  6  50
-2,64533463605276  -2,6990718124084  5571  6  50
-2,65266243282853  -2,70395701025892  5576  6  50
-2,6599902296043  -2,71128480703468  5581  6  50
-2,66976062530533  -2,71861260381045  5586  6  50
-2,67708842208109  -2,72349780166097  5591  6  50
-2,68441621885686  -2,73082559843674  5596  6  50
-2,69174401563263  -2,73571079628725  5601  6  50
-2,6990718124084  -2,74303859306302  5606  6  50
-2,70639960918417  -2,74792379091353  5611  6  50
-2,71372740595994  -2,7552515876893  5616  6  50
-2,72105520273571  -2,76013678553981  5621  6  50
-2,72838299951148  -2,76502198339033  5626  6  50
-2,73571079628725  -2,76990718124084  5631  6  50
-2,74303859306302  -2,77723497801661  5636  6  50
-2,75036638983879  -2,78212017586712  5641  6  50
-2,7552515876893  -2,78700537371764  5646  6  50
-2,76257938446507  -2,79189057156815  5651  6  50
-2,76990718124084  -2,79677576941866  5656  6  50
-2,77479237909135  -2,80166096726917  5661  6  50
-2,78212017586712  -2,80654616511969  5666  6  50
-2,78700537371764  -2,8114313629702  5673  6  50
-2,79433317049341  -2,81631656082071  5678  6  50
-2,79921836834392  -2,82120175867123  5683  6  50
-2,80654616511969  -2,82364435759648  5688  6  50
-2,8114313629702  -2,828529555447  5693  6  50
-2,81631656082071  -2,83341475329751  5698  6  50
-2,82120175867123  -2,83585735222277  5703  6  50
-2,828529555447  -2,84074255007328  5708  6  50
-2,83341475329751  -2,84318514899853  5713  6  50
-2,83829995114802  -2,84807034684905  5718  6  50
-2,84318514899853  -2,8505129457743  5723  6  50
-2,84807034684905  -2,85539814362482  5728  6  50
-2,85295554469956  -2,85784074255007  5733  6  50
-2,85784074255007  -2,86028334147533  5738  6  50
-2,86272594040059  -2,86516853932584  5743  6  50
-2,8676111382511  -2,8676111382511  5748  6  50
-2,87005373717636  -2,87005373717636  5753  6  50
-2,87493893502687  -2,87249633610161  5758  6  50
-2,87982413287738  -2,87493893502687  5763  6  50
-2,88470933072789  -2,87738153395212  5768  6  50
-2,88715192965315  -2,87982413287738  5773  6  50
-2,89203712750366  -2,88226673180264  5778  6  50
-2,89447972642892  -2,88470933072789  5783  6  50
-2,89936492427943  -2,88715192965315  5788  6  50
-2,90180752320469  -2,88715192965315  5793  6  50
-2,9066927210552  -2,88959452857841  5798  6  50
-2,90913531998046  -2,89203712750366  5803  6  50
-2,91157791890572  -2,89203712750366  5808  6  50
-2,91402051783097  -2,89447972642892  5815  6  50
-2,91890571568148  -2,89692232535418  5820  6  50
-2,92134831460674  -2,89692232535418  5825  6  50
-2,923790913532  -2,89936492427943  5830  6  50
-2,92623351245725  -2,89936492427943  5835  6  50
-2,92867611138251  -2,89936492427943  5840  6  50
-2,93111871030777  -2,90180752320469  5845  6  50
-2,93356130923302  -2,90180752320469  5850  6  50
-2,93600390815828  -2,90180752320469  5855  6  50
-2,93600390815828  -2,90180752320469  5860  6  50
-2,93844650708354  -2,90180752320469  5865  6  50
-2,94088910600879  -2,90180752320469  5870  6  50
-2,94333170493405  -2,90425012212995  5875  6  50
-2,94333170493405  -2,90180752320469  5880  6  50
-2,94577430385931  -2,90180752320469  5885  6  50
-2,94577430385931  -2,90180752320469  5890  6  50
-2,94821690278456  -2,90180752320469  5895  6  50
-2,94821690278456  -2,90180752320469  5900  6  50
-2,95065950170982  -2,90180752320469  5905  6  50
-2,95065950170982  -2,89936492427943  5910  6  50
-2,95065950170982  -2,89936492427943  5915  6  50
-2,95310210063508  -2,89936492427943  5920  6  50
-2,95310210063508  -2,89692232535418  5925  6  50
-2,95310210063508  -2,89692232535418  5930  6  50
-2,95310210063508  -2,89447972642892  5935  6  50
-2,95310210063508  -2,89447972642892  5940  6  50
-2,95310210063508  -2,89203712750366  5945  6  50
-2,95310210063508  -2,88959452857841  5950  6  50
-2,95310210063508  -2,88959452857841  5957  6  50
-2,95310210063508  -2,88715192965315  5962  6  50
-2,95310210063508  -2,88470933072789  5967  6  50
-2,95310210063508  -2,88226673180264  5972  6  50
-2,95065950170982  -2,87982413287738  5977  6  50
-2,95065950170982  -2,87738153395212  5982  6  50
-2,95065950170982  -2,87493893502687  5987  6  50
-2,94821690278456  -2,87249633610161  5992  6  50
-2,94821690278456  -2,87005373717636  5997  6  50
-2,94577430385931  -2,8676111382511  6002  6  50
-2,94577430385931  -2,86516853932584  6007  6  50
-2,94333170493405  -2,86272594040059  6012  6  50
-2,94333170493405  -2,85784074255007  6017  6  50
-2,94088910600879  -2,85539814362482  6022  6  50
-2,93844650708354  -2,85295554469956  6027  6  50
-2,93600390815828  -2,84807034684905  6032  6  50
-2,93600390815828  -2,84562774792379  6037  6  50
-2,93356130923302  -2,84074255007328  6042  6  50
-2,93111871030777  -2,83829995114802  6047  6  50
-2,92867611138251  -2,83341475329751  6052  6  50
-2,92623351245725  -2,828529555447  6057  6  50
-2,923790913532  -2,82608695652174  6062  6  50
-2,92134831460674  -2,82120175867123  6067  6  50
-2,91890571568148  -2,81631656082071  6072  6  50
-2,91402051783097  -2,8114313629702  6077  6  50
-2,91157791890572  -2,80654616511969  6082  6  50
-2,90913531998046  -2,80166096726917  6087  6  50
-2,9066927210552  -2,79921836834392  6094  6  50
-2,90180752320469  -2,79189057156815  6099  6  50
-2,89936492427943  -2,78700537371764  6104  6  50
-2,89447972642892  -2,78212017586712  6109  6  50
-2,89203712750366  -2,77723497801661  6114  6  50
-2,88715192965315  -2,7723497801661  6119  6  50
-2,88470933072789  -2,76746458231558  6124  6  50
-2,87982413287738  -2,76013678553981  6129  6  50
-2,87493893502687  -2,7552515876893  6134  6  50
-2,87005373717636  -2,75036638983879  6139  6  50
-2,8676111382511  -2,74303859306302  6144  6  50
-2,86272594040059  -2,73815339521251  6149  6  50
-2,85784074255007  -2,73082559843674  6154  6  50
-2,85295554469956  -2,72594040058622  6159  6  50
-2,84807034684905  -2,71861260381045  6164  6  50
-2,84318514899853  -2,71372740595994  6169  6  50
-2,83829995114802  -2,70639960918417  6174  6  50
-2,83341475329751  -2,6990718124084  6179  6  50
-2,828529555447  -2,69174401563263  6184  6  50
-2,82120175867123  -2,68685881778212  6189  6  50
-2,81631656082071  -2,67953102100635  6194  6  50
-2,8114313629702  -2,67220322423058  6199  6  50
-2,80654616511969  -2,66487542745481  6204  6  50
-2,79921836834392  -2,65754763067904  6209  6  50
-2,79433317049341  -2,65021983390327  6214  6  50
-2,78700537371764  -2,6428920371275  6219  7  80
-2,78212017586712  -2,63556424035173  6227  7  80
-2,77479237909135  -2,62579384465071  6232  7  80
-2,76990718124084  -2,61846604787494  6237  7  80
-2,76257938446507  -2,61113825109917  6242  7  80
-2,7552515876893  -2,6038104543234  6247  7  80
-2,75036638983879  -2,59404005862237  6252  7  80
-2,74303859306302  -2,5867122618466  6257  7  80
-2,73571079628725  -2,57938446507084  6262  7  80
-2,72838299951148  -2,56961406936981  6267  7  80
-2,72105520273571  -2,56228627259404  6272  7  80
-2,71372740595994  -2,55251587689301  6277  7  80
-2,70639960918417  -2,54518808011724  6282  7  80
-2,6990718124084  -2,53541768441622  6287  7  80
-2,69174401563263  -2,52564728871519  6293  7  80
-2,68441621885686  -2,51831949193942  6298  7  80
-2,67708842208109  -2,5085490962384  6303  7  80
-2,66976062530533  -2,49877870053737  6308  7  80
-2,6599902296043  -2,48900830483635  6313  7  80
-2,65266243282853  -2,47923790913532  6318  7  80
-2,64533463605276  -2,46946751343429  6323  7  80
-2,63556424035173  -2,45969711773327  6328  7  80
-2,62823644357596  -2,44992672203224  6333  7  80
-2,6209086468002  -2,44015632633122  6338  7  80
-2,61113825109917  -2,43038593063019  6343  7  80
-2,60136785539814  -2,42061553492916  6348  7  80
-2,59404005862237  -2,41084513922814  6353  7  80
-2,58426966292135  -2,40107474352711  6360  7  80
-2,57694186614558  -2,39130434782609  6365  7  80
-2,56717147044455  -2,3790913531998  6370  7  80
-2,55740107474353  -2,36932095749878  6375  7  80
-2,5476306790425  -2,35955056179775  6380  7  80
-2,53786028334148  -2,34733756717147  6385  7  80
-2,53053248656571  -2,33756717147044  6390  7  80
-2,52076209086468  -2,32779677576942  6395  7  80
-2,51099169516365  -2,31558378114314  6400  7  80
-2,50122129946263  -2,30581338544211  6405  7  80
-2,4914509037616  -2,29360039081583  6410  7  80
-2,48168050806058  -2,28138739618955  6415  7  80
-2,47191011235955  -2,27161700048852  6420  8  10
-2,45969711773327  -2,25940400586224  6426  8  10
-2,44992672203224  -2,24719101123596  6431  8  10
-2,44015632633122  -2,23742061553493  6436  8  10
-2,43038593063019  -2,22520762090865  6441  8  10
-2,41817293600391  -2,21299462628236  6446  8  10
-2,40840254030288  -2,20078163165608  6451  8  10
-2,39863214460186  -2,1885686370298  6456  8  10
-2,38641914997557  -2,17635564240352  6461  8  10
-2,37664875427455  -2,16414264777724  6466  8  10
-2,36443575964827  -2,15192965315095  6471  8  10
-2,35466536394724  -2,13971665852467  6476  8  10
-2,34245236932096  -2,12750366389839  6481  8  10
-2,33268197361993  -2,11529066927211  6489  8  10
-2,32046897899365  -2,10307767464582  6494  8  10
-2,30825598436737  -2,09086468001954  6499  8  10
-2,29848558866634  -2,07865168539326  6504  8  10
-2,28627259404006  -2,06399609184172  6509  8  10
-2,27405959941378  -2,05178309721544  6514  8  10
-2,26184660478749  -2,03957010258915  6519  8  10
-2,24963361016121  -2,02735710796287  6524  8  10
-2,23742061553493  -2,01270151441133  6529  8  10
-2,2276502198339  -2,00048851978505  6534  8  10
-2,21543722520762  -1,98583292623351  6539  8  10
-2,20322423058134  -1,97361993160723  6544  8  10
-2,19101123595506  -1,95896433805569  6549  8  10
-2,17635564240352  -1,94675134342941  6554  8  10
-2,16414264777724  -1,93209574987787  6559  8  10
-2,15192965315095  -1,91988275525159  6564  8  10
-2,13971665852467  -1,90522716170005  6569  8  10
-2,12750366389839  -1,89057156814851  6574  8  10
-2,11529066927211  -1,87835857352223  6579  8  10
-2,10063507572057  -1,86370297997069  6584  8  10
-2,08842208109428  -1,84904738641915  6589  8  10
-2,076209086468  -1,83439179286761  6594  8  10
-2,06155349291646  -1,82217879824133  6599  8  10
-2,04934049829018  -1,80752320468979  6604  8  10
-2,03468490473864  -1,79286761113825  6609  8  10
-2,02247191011236  -1,77821201758671  6616  8  10
-2,00781631656082  -1,76355642403517  6621  8  10
-1,99560332193454  -1,74890083048363  6626  8  10
-1,980947728383  -1,7342452369321  6631  8  10
-1,96873473375672  -1,71958964338056  6636  8  10
-1,95407914020518  -1,70493404982902  6641  8  10
-1,93942354665364  -1,69027845627748  6646  8  10
-1,92721055202736  -1,67562286272594  6651  8  10
-1,91255495847582  -1,6609672691744  6656  8  10
-1,89789936492428  -1,64631167562286  6661  8  10
-1,88324377137274  -1,62921348314607  6666  8  10
-1,87103077674646  -1,61455788959453  6671  8  10
-1,85637518319492  -1,59990229604299  6676  8  10
-1,84171958964338  -1,58524670249145  6681  8  10
-1,82706399609184  -1,57059110893991  6686  8  10
-1,8124084025403  -1,55349291646312  6691  8  10
-1,79775280898876  -1,53883732291158  6696  8  10
-1,78309721543723  -1,52418172936004  6701  8  10
-1,76844162188569  -1,50708353688324  6706  8  10
-1,75378602833415  -1,4924279433317  6711  8  10
-1,73913043478261  -1,47532975085491  6716  8  10
-1,72447484123107  -1,46067415730337  6721  8  10
-1,70981924767953  -1,44357596482658  6726  8  10
-1,69516365412799  -1,42892037127504  6731  8  10
-1,68050806057645  -1,41182217879824  6739  8  10
-1,66340986809966  -1,3971665852467  6744  8  10
-1,64875427454812  -1,38006839276991  6749  8  10
-1,63409868099658  -1,36541279921837  6754  8  10
-1,61944308744504  -1,34831460674157  6759  8  10
-1,60234489496825  -1,33121641426478  6764  8  10
-1,58768930141671  -1,31656082071324  6769  8  10
-1,57303370786517  -1,29946262823644  6774  8  10
-1,55593551538837  -1,28236443575965  6779  8  10
-1,54127992183683  -1,26770884220811  6784  8  10
-1,52418172936004  -1,25061064973131  6789  8  10
-1,5095261358085  -1,23351245725452  6794  8  10
-1,4924279433317  -1,21641426477772  6799  8  10
-1,47777234978017  -1,20175867122618  6804  8  10
-1,46067415730337  -1,18466047874939  6809  8  10
-1,44601856375183  -1,16756228627259  6814  8  10
-1,42892037127504  -1,1504640937958  6819  8  10
-1,4142647777235  -1,133365901319  6824  8  10
-1,3971665852467  -1,11626770884221  6829  8  10
-1,38006839276991  -1,09916951636541  6834  8  10
-1,36541279921837  -1,08207132388862  6839  8  10
-1,34831460674157  -1,06497313141182  6844  8  10
-1,33121641426478  -1,05031753786028  6849  8  10
-1,31656082071324  -1,03321934538349  6854  8  10
-1,29946262823644  -1,01612115290669  6861  8  10
-1,28236443575965  -0,999022960429897  6866  8  10
-1,26526624328285  -0,979482169027846  6871  8  10
-1,25061064973131  -0,96238397655105  6876  8  10
-1,23351245725452  -0,945285784074255  6881  8  10
-1,21641426477772  -0,92818759159746  6886  8  10
-1,19931607230093  -0,911089399120664  6891  8  10
-1,18221787982413  -0,893991206643869  6896  8  10
-1,16511968734734  -0,876893014167074  6901  8  10
-1,14802149487054  -0,859794821690278  6906  8  10
-1,13092330239375  -0,842696629213483  6911  8  10
-1,11382510991695  -0,825598436736688  6916  8  10
-1,09672691744016  -0,806057645334636  6921  8  10
-1,07962872496336  -0,788959452857841  6926  8  10
-1,06253053248657  -0,771861260381045  6931  8  10
-1,04543234000977  -0,75476306790425  6936  8  10
-1,02833414753298  -0,735222276502198  6941  8  10
-1,01123595505618  -0,718124084025403  6946  8  10
-0,994137762579384  -0,701025891548608  6951  8  10
-0,977039570102589  -0,683927699071812  6956  8  10
-0,959941377625794  -0,664386907669761  6961  8  10
-0,942843185148998  -0,647288715192965  6966  8  10
-0,925744992672203  -0,63019052271617  6971  8  10
-0,908646800195408  -0,613092330239375  6976  8  10
-0,891548607718613  -0,593551538837323  6983  8  10
-0,872007816316561  -0,576453346360528  6988  8  10
-0,854909623839766  -0,559355153883732  6993  8  10
-0,83781143136297  -0,53981436248168  6998  8  10
-0,820713238886175  -0,522716170004885  7003  8  10
-0,80361504640938  -0,503175378602833  7008  8  10
-0,784074255007328  -0,486077186126038  7013  8  10
-0,766976062530532  -0,468978993649243  7018  8  10
-0,749877870053737  -0,449438202247191  7023  8  10
-0,732779677576942  -0,432340009770396  7028  8  10
-0,71323888617489  -0,4152418172936  7033  8  10
-0,696140693698095  -0,395701025891549  7038  8  10
-0,6790425012213  -0,378602833414753  7043  8  10
-0,659501709819248  -0,359062042012702  7048  8  10
-0,642403517342452  -0,341963849535906  7053  8  10
-0,625305324865657  -0,322423058133854  7058  8  10
-0,605764533463605  -0,305324865657059  7063  8  10
-0,58866634098681  -0,288226673180264  7068  8  10
-0,571568148510015  -0,268685881778212  7073  8  10
-0,552027357107963  -0,251587689301417  7078  8  10
-0,534929164631168  -0,232046897899365  7083  8  10
-0,517830972154372  -0,21494870542257  7088  8  10
-0,49829018075232  -0,195407914020518  7093  8  10
-0,481191988275525  -0,178309721543723  7100  8  10
-0,461651196873473  -0,158768930141671  7105  8  10
-0,444553004396678  -0,141670737664875  7110  8  10
-0,427454811919883  -0,122129946262824  7115  8  10
-0,407914020517831  -0,105031753786028  7120  8  10
-0,390815828041036  -0,0854909623839765  7125  8  10
-0,371275036638984  -0,0683927699071812  7130  8  10
-0,354176844162189  -0,0488519785051295  7135  8  10
-0,334636052760137  -0,0317537860283341  7140  8  10
-0,317537860283341  -0,0122129946262824  7145  8  10
-0,300439667806546  0,00244259892525647  7151  8  10
-0,280898876404494  0,0195407914020518  7156  8  10
-0,263800683927699  0,0390815828041036  7161  8  10
-0,244259892525647  0,0561797752808989  7166  8  10
-0,227161700048852  0,0757205666829507  7171  8  10
-0,2076209086468  0,092818759159746  7176  8  10
-0,190522716170005  0,112359550561798  7181  8  10
-0,170981924767953  0,129457743038593  7186  8  10
-0,153883732291158  0,148998534440645  7191  8  10
-0,134342940889106  0,16609672691744  7196  8  10
-0,117244748412311  0,185637518319492  7201  8  10
-0,0977039570102589  0,202735710796287  7206  8  10
-0,0806057645334636  0,222276502198339  7211  8  10
-0,0610649731314118  0,239374694675134  7218  8  10
-0,0439667806546165  0,258915486077186  7223  8  10
-0,0244259892525647  0,276013678553981  7228  8  10
-0,00732779677576942  0,295554469956033  7233  8  10
0,00977039570102589  0,312652662432829  7238  8  10
0,0268685881778212  0,329750854909624  7243  8  10
0,046409379579873  0,349291646311676  7248  8  10
0,0635075720566683  0,366389838788471  7253  8  10
0,0830483634587201  0,385930630190523  7258  8  10
0,100146555935515  0,403028822667318  7263  8  10
0,117244748412311  0,42256961406937  7268  8  10
0,136785539814362  0,439667806546165  7273  8  10
0,153883732291158  0,45676599902296  7278  8  10
0,17342452369321  0,476306790425012  7283  8  10
0,190522716170005  0,493404982901808  7288  8  10
0,210063507572057  0,512945774303859  7293  8  10
0,227161700048852  0,530043966780655  7298  8  10
0,246702491450904  0,54714215925745  7303  8  10
0,263800683927699  0,566682950659502  7308  8  10
0,283341475329751  0,583781143136297  7313  8  10
0,300439667806546  0,600879335613092  7318  8  10
0,317537860283341  0,620420127015144  7323  8  10
0,337078651685393  0,637518319491939  7330  8  10
0,354176844162189  0,654616511968735  7335  8  10
0,37371763556424  0,674157303370787  7340  8  10
0,390815828041036  0,691255495847582  7345  8  10
0,407914020517831  0,708353688324377  7350  8  10
0,427454811919883  0,725451880801172  7355  8  10
0,444553004396678  0,744992672203224  7360  8  10
0,46409379579873  0,76209086468002  7365  8  10
0,481191988275525  0,779189057156815  7370  8  10
0,49829018075232  0,79628724963361  7375  8  10
0,517830972154372  0,813385442110405  7380  8  10
0,534929164631168  0,832926233512457  7385  8  10
0,552027357107963  0,850024425989253  7390  8  10
0,571568148510015  0,867122618466048  7395  8  10
0,58866634098681  0,884220810942843  7400  8  10
0,605764533463605  0,901319003419638  7405  8  10
0,625305324865657  0,918417195896434  7410  8  10
0,642403517342452  0,935515388373229  7415  8  10
0,659501709819248  0,952613580850024  7420  8  10
0,676599902296043  0,972154372252076  7425  9  255
0,696140693698095  0,989252564728871  7431  9  255
0,71323888617489  1,00635075720567  7436  9  255
0,730337078651685  1,02344894968246  7443  9  255
0,747435271128481  1,04054714215926  7448  9  255
0,766976062530532  1,05764533463605  7453  9  255
0,784074255007328  1,07474352711285  7458  9  255
0,801172447484123  1,09184171958964  7463  9  255
0,818270639960918  1,10893991206644  7468  9  255
0,835368832437714  1,12359550561798  7473  9  255
0,852467024914509  1,14069369809477  7478  9  255
0,869565217391304  1,15779189057157  7483  9  255
0,8866634098681  1,17489008304836  7488  9  255
0,906204201270151  1,19198827552516  7493  9  255
0,923302393746947  1,20908646800195  7498  9  255
0,940400586223742  1,22618466047875  7503  9  255
0,957498778700537  1,24084025403029  7508  9  255
0,974596971177333  1,25793844650708  7513  9  255
0,991695163654128  1,27503663898388  7518  9  255
1,00879335613092  1,29213483146067  7523  9  255
1,02589154860772  1,30679042501221  7528  9  255
1,04298974108451  1,32388861748901  7533  9  255
1,06008793356131  1,3409868099658  7538  9  255
1,07474352711285  1,35564240351734  7543  9  255
1,09184171958964  1,37274059599414  7548  9  255
1,10893991206644  1,38739618954568  7555  9  255
1,12603810454323  1,40449438202247  7560  9  255
1,14313629702003  1,42159257449927  7565  9  255
1,16023448949682  1,43624816805081  7570  9  255
1,17733268197362  1,4533463605276  7575  9  255
1,19198827552516  1,46800195407914  7580  9  255
1,20908646800195  1,48510014655594  7585  9  255
1,22618466047875  1,49975574010747  7590  9  255
1,24328285295554  1,51441133365901  7595  9  255
1,25793844650708  1,53150952613581  7600  9  255
1,27503663898388  1,54616511968735  7605  9  255
1,29213483146067  1,56082071323889  7610  9  255
1,30679042501221  1,57791890571568  7615  9  255
1,32388861748901  1,59257449926722  7620  9  255
1,33854421104055  1,60723009281876  7625  9  255
1,35564240351734  1,62432828529555  7630  9  255
1,37274059599414  1,63898387884709  7635  9  255
1,38739618954568  1,65363947239863  7640  9  255
1,40449438202247  1,66829506595017  7645  9  255
1,41914997557401  1,68295065950171  7650  9  255
1,43624816805081  1,69760625305325  7655  9  255
1,45090376160234  1,71226184660479  7660  9  255
1,46555935515388  1,72691744015633  7667  9  255
1,48265754763068  1,74157303370787  7672  9  255
1,49731314118222  1,7562286272594  7677  9  255
1,51196873473376  1,77088422081094  7682  9  255
1,52906692721055  1,78553981436248  7687  9  255
1,54372252076209  1,80019540791402  7692  9  255
1,55837811431363  1,81485100146556  7697  9  255
1,57547630679042  1,8295065950171  7702  9  255
1,59013190034196  1,84416218856864  7707  9  255
1,6047874938935  1,85881778212018  7712  9  255
1,61944308744504  1,87103077674646  7717  9  255
1,63409868099658  1,885686370298  7722  9  255
1,64875427454812  1,90034196384954  7727  9  255
1,66340986809966  1,91255495847582  7732  9  255
1,6780654616512  1,92721055202736  7737  9  255
1,69272105520274  1,9418661455789  7742  9  255
1,70737664875427  1,95407914020518  7747  9  255
1,72203224230581  1,96873473375672  7752  9  255
1,73668783585735  1,980947728383  7757  9  255
1,75134342940889  1,99560332193454  7762  9  255
1,76599902296043  2,00781631656082  7767  9  255
1,78065461651197  2,02247191011236  7774  9  255
1,79531021006351  2,03468490473864  7779  9  255
1,80996580361505  2,04689789936492  7784  9  255
1,82217879824133  2,06155349291646  7789  9  255
1,83683439179287  2,07376648754275  7794  9  255
1,85148998534441  2,08597948216903  7799  9  255
1,86370297997069  2,09819247679531  7804  9  255
1,87835857352223  2,11284807034685  7809  9  255
1,89301416707377  2,12506106497313  7814  9  255
1,90522716170005  2,13727405959941  7819  9  255
1,91988275525159  2,1494870542257  7824  9  255
1,93209574987787  2,16170004885198  7829  9  255
1,94675134342941  2,17391304347826  7834  9  255
1,95896433805569  2,18612603810454  7839  9  255
1,97361993160723  2,19833903273083  7844  9  255
1,98583292623351  2,21055202735711  7849  9  255
1,99804592085979  2,22276502198339  7854  9  255
2,01270151441133  2,23253541768442  7859  9  255
2,02491450903762  2,2447484123107  7864  9  255
2,0371275036639  2,25696140693698  7869  9  255
2,04934049829018  2,26917440156326  7874  9  255
2,06155349291646  2,27894479726429  7881  9  255
2,076209086468  2,29115779189057  7886  9  255
2,08842208109428  2,30337078651685  7891  9  255
2,10063507572057  2,31314118221788  7896  9  255
2,11284807034685  2,32535417684416  7901  9  255
2,12506106497313  2,33512457254519  7906  9  255
2,13727405959941  2,34733756717147  7911  9  255
2,1494870542257  2,3571079628725  7916  9  255
2,16170004885198  2,36932095749878  7921  9  255
2,171470444553  2,3790913531998  7926  9  255
2,18368343917929  2,38886174890083  7931  9  255
2,19589643380557  2,39863214460186  7936  9  255
2,20810942843185  2,41084513922814  7941  9  255
2,22032242305813  2,42061553492916  7946  9  255
2,23009281875916  2,43038593063019  7951  9  255
2,24230581338544  2,44015632633122  7956  9  255
2,25207620908647  2,44992672203224  7961  9  255
2,26428920371275  2,45969711773327  7966  9  255
2,27650219833903  2,46946751343429  7971  9  255
2,28627259404006  2,47923790913532  7976  9  255
2,29848558866634  2,48900830483635  7981  9  255
2,30825598436737  2,49877870053737  7988  9  255
2,31802638006839  2,5085490962384  7993  9  255
2,33023937469468  2,51831949193942  7998  9  255
2,3400097703957  2,52564728871519  8003  9  255
2,34978016609673  2,53541768441622  8008  9  255
2,35955056179775  2,54518808011724  8013  9  255
2,37176355642403  2,55251587689301  8018  9  255
2,38153395212506  2,56228627259404  8023  9  255
2,39130434782609  2,57205666829507  8028  9  255
2,40107474352711  2,57938446507084  8033  9  255
2,41084513922814  2,58915486077186  8038  9  255
2,42061553492916  2,59648265754763  8043  9  255
2,43038593063019  2,6038104543234  8048  9  255
2,44015632633122  2,61358085002443  8053  9  255
2,44992672203224  2,6209086468002  8058  9  255
2,45969711773327  2,62823644357596  8063  9  255
2,46702491450904  2,63556424035173  8068  9  255
2,47679531021006  2,64533463605276  8073  9  255
2,48656570591109  2,65266243282853  8078  9  255
2,49389350268686  2,6599902296043  8083  9  255
2,50366389838788  2,66731802638007  8090  9  255
2,51343429408891  2,67464582315584  8095  9  255
2,52076209086468  2,68197361993161  8100  9  255
2,53053248656571  2,68930141670738  8105  9  255
2,53786028334148  2,69662921348315  8110  9  255
2,5476306790425  2,70151441133366  8115  9  255
2,55495847581827  2,70884220810943  8120  9  255
2,56228627259404  2,7161700048852  8125  9  255
2,57205666829507  2,72349780166097  8130  9  255
2,57938446507084  2,72838299951148  8135  9  255
2,5867122618466  2,73571079628725  8140  9  255
2,59404005862237  2,74059599413776  8145  9  255
2,60136785539814  2,74792379091353  8150  9  255
2,60869565217391  2,75280898876404  8155  9  255
2,61602344894968  2,76013678553981  8160  9  255
2,62335124572545  2,76502198339033  8165  9  255
2,63067904250122  2,7723497801661  8170  9  255
2,63800683927699  2,77723497801661  8175  9  255
2,64533463605276  2,78212017586712  8180  9  255
2,65266243282853  2,78700537371764  8185  9  255
2,6599902296043  2,79433317049341  8192  9  255
2,66731802638007  2,79921836834392  8197  9  255
2,67220322423058  2,80410356619443  8202  9  255
2,67953102100635  2,80898876404494  8207  9  255
2,68441621885686  2,81387396189546  8212  9  255
2,69174401563263  2,81875915974597  8217  9  255
2,6990718124084  2,82364435759648  8222  9  255
2,70395701025892  2,82608695652174  8227  9  255
2,70884220810943  2,83097215437225  8232  9  255
2,7161700048852  2,83585735222277  8237  9  255
2,72105520273571  2,84074255007328  8242  9  255
2,72594040058622  2,84318514899853  8247  9  255
2,73326819736199  2,84807034684905  8252  9  255
2,73815339521251  2,85295554469956  8257  9  255
2,74303859306302  2,85539814362482  8262  9  255
2,74792379091353  2,86028334147533  8267  9  255
2,75280898876404  2,86272594040059  8272  9  255
2,75769418661456  2,86516853932584  8277  9  255
2,76257938446507  2,87005373717636  8282  9  255
2,76746458231558  2,87249633610161  8287  9  255
2,7723497801661  2,87493893502687  8295  9  255
2,77723497801661  2,87738153395212  8300  9  255
2,78212017586712  2,88226673180264  8305  9  255
2,78456277479238  2,88470933072789  8310  9  255
2,78944797264289  2,88715192965315  8315  9  255
2,79433317049341  2,88959452857841  8320  9  255
2,79677576941866  2,89203712750366  8325  9  255
2,80166096726917  2,89447972642892  8330  9  255
2,80410356619443  2,89447972642892  8335  9  255
2,80898876404494  2,89692232535418  8340  9  255
2,8114313629702  2,89936492427943  8345  9  255
2,81631656082071  2,90180752320469  8350  9  255
2,81875915974597  2,90425012212995  8355  9  255
2,82120175867123  2,90425012212995  8360  9  255
2,82608695652174  2,9066927210552  8365  9  255
2,828529555447  2,9066927210552  8370  9  255
2,83097215437225  2,90913531998046  8375  9  255
2,83341475329751  2,90913531998046  8380  9  255
2,83585735222277  2,91157791890572  8385  9  255
2,83829995114802  2,91157791890572  8390  9  255
2,84074255007328  2,91157791890572  8397  9  255
2,84318514899853  2,91402051783097  8402  9  255
2,84562774792379  2,91402051783097  8407  9  255
2,84807034684905  2,91402051783097  8412  9  255
2,84807034684905  2,91402051783097  8417  9  255
2,8505129457743  2,91402051783097  8422  9  255
2,85295554469956  2,91402051783097  8427  10  50
2,85539814362482  2,91402051783097  8433  10  50
2,85539814362482  2,91402051783097  8438  10  50
2,85784074255007  2,91402051783097  8443  10  50
2,85784074255007  2,91402051783097  8448  10  50
2,86028334147533  2,91402051783097  8453  10  50
2,86028334147533  2,91157791890572  8458  10  50
2,86028334147533  2,91157791890572  8463  10  50
2,86272594040059  2,91157791890572  8468  10  50
2,86272594040059  2,90913531998046  8473  10  50
2,86272594040059  2,90913531998046  8478  10  50
2,86272594040059  2,9066927210552  8483  10  50
2,86272594040059  2,9066927210552  8488  10  50
2,86272594040059  2,90425012212995  8495  10  50
2,86272594040059  2,90425012212995  8500  10  50
2,86272594040059  2,90180752320469  8505  10  50
2,86272594040059  2,89936492427943  8510  10  50
2,86272594040059  2,89692232535418  8515  10  50
2,86272594040059  2,89692232535418  8520  10  50
2,86272594040059  2,89447972642892  8525  10  50
2,86272594040059  2,89203712750366  8530  10  50
2,86028334147533  2,88959452857841  8535  10  50
2,86028334147533  2,88715192965315  8540  10  50
2,86028334147533  2,88470933072789  8545  10  50
2,85784074255007  2,88226673180264  8550  10  50
2,85784074255007  2,87982413287738  8555  10  50
2,85539814362482  2,87493893502687  8560  10  50
2,85539814362482  2,87249633610161  8565  10  50
2,85295554469956  2,87005373717636  8570  10  50
2,8505129457743  2,8676111382511  8575  10  50
2,84807034684905  2,86272594040059  8580  10  50
2,84807034684905  2,86028334147533  8585  10  50
2,84562774792379  2,85539814362482  8592  10  50
2,84318514899853  2,85295554469956  8597  10  50
2,84074255007328  2,84807034684905  8602  10  50
2,83829995114802  2,84562774792379  8607  10  50
2,83585735222277  2,84074255007328  8612  10  50
2,83341475329751  2,83585735222277  8617  10  50
2,83097215437225  2,83341475329751  8622  10  50
2,828529555447  2,828529555447  8627  10  50
2,82608695652174  2,82364435759648  8632  10  50
2,82120175867123  2,81875915974597  8637  10  50
2,81875915974597  2,81387396189546  8642  10  50
2,81631656082071  2,80898876404494  8647  10  50
2,8114313629702  2,80410356619443  8652  10  50
2,80898876404494  2,79921836834392  8657  10  50
2,80410356619443  2,79433317049341  8662  10  50
2,80166096726917  2,78944797264289  8667  10  50
2,79677576941866  2,78456277479238  8672  10  50
2,79433317049341  2,77723497801661  8677  10  50
2,78944797264289  2,7723497801661  8682  10  50
2,78456277479238  2,76746458231558  8690  10  50
2,78212017586712  2,76013678553981  8695  10  50
2,77723497801661  2,7552515876893  8700  10  50
2,7723497801661  2,75036638983879  8705  10  50
2,76746458231558  2,74303859306302  8710  10  50
2,76257938446507  2,73571079628725  8715  10  50
2,75769418661456  2,73082559843674  8720  10  50
2,75280898876404  2,72349780166097  8725  10  50
2,74792379091353  2,71861260381045  8730  10  50
2,74303859306302  2,71128480703468  8735  10  50
2,73815339521251  2,70395701025892  8740  10  50
2,73326819736199  2,69662921348315  8745  10  50
2,72594040058622  2,68930141670738  8750  10  50
2,72105520273571  2,68197361993161  8755  10  50
2,7161700048852  2,67708842208109  8760  10  50
2,70884220810943  2,66976062530533  8765  10  50
2,70395701025892  2,66243282852956  8770  10  50
2,6990718124084  2,65266243282853  8775  10  50
2,69174401563263  2,64533463605276  8780  10  50
2,68441621885686  2,63800683927699  8788  10  50
2,67953102100635  2,63067904250122  8793  10  50
2,67220322423058  2,62335124572545  8798  10  50
2,66731802638007  2,61358085002443  8803  10  50
2,6599902296043  2,60625305324866  8808  10  50
2,65266243282853  2,59892525647289  8813  10  50
2,64533463605276  2,58915486077186  8818  10  50
2,63800683927699  2,58182706399609  8823  10  50
2,63067904250122  2,57205666829507  8828  10  50
2,62335124572545  2,5647288715193  8833  10  50
2,61602344894968  2,55495847581827  8838  10  50
2,60869565217391  2,5476306790425  8843  10  50
2,60136785539814  2,53786028334148  8848  10  50
2,59404005862237  2,52808988764045  8853  10  50
2,5867122618466  2,52076209086468  8858  10  50
2,57938446507084  2,51099169516365  8863  10  50
2,57205666829507  2,50122129946263  8868  10  50
2,56228627259404  2,4914509037616  8873  10  50
2,55495847581827  2,48168050806058  8878  10  50
2,5476306790425  2,47191011235955  8885  10  50
2,53786028334148  2,46213971665852  8890  10  50
2,53053248656571  2,4523693209575  8895  10  50
2,52076209086468  2,44259892525647  8900  10  50
2,51343429408891  2,43282852955545  8905  10  50
2,50366389838788  2,42305813385442  8910  10  50
2,49389350268686  2,4132877381534  8915  10  50
2,48656570591109  2,40107474352711  8920  10  50
2,47679531021006  2,39130434782609  8925  10  50
2,46702491450904  2,38153395212506  8930  10  50
2,45969711773327  2,37176355642403  8935  10  50
2,44992672203224  2,35955056179775  8940  10  50
2,44015632633122  2,34978016609673  8945  10  50
2,43038593063019  2,33756717147044  8950  10  50
2,42061553492916  2,32779677576942  8955  10  50
2,41084513922814  2,31558378114314  8960  10  50
2,40107474352711  2,30581338544211  8965  10  50
2,39130434782609  2,29360039081583  8970  10  50
2,38153395212506  2,28138739618955  8978  10  50
2,37176355642403  2,27161700048852  8983  10  50
2,35955056179775  2,25940400586224  8988  10  50
2,34978016609673  2,24719101123596  8993  10  50
2,3400097703957  2,23742061553493  8998  10  50
2,33023937469468  2,22520762090865  9003  10  50
2,31802638006839  2,21299462628236  9008  10  50
2,30825598436737  2,20078163165608  9013  10  50
2,29848558866634  2,1885686370298  9018  10  50
2,28627259404006  2,17635564240352  9023  10  50
2,27650219833903  2,16414264777724  9028  10  50
2,26428920371275  2,15192965315095  9033  10  50
2,25207620908647  2,13971665852467  9038  10  50
2,24230581338544  2,12750366389839  9043  10  50
2,23009281875916  2,11529066927211  9048  10  50
2,22032242305813  2,10307767464582  9053  10  50
2,20810942843185  2,08842208109428  9058  10  50
2,19589643380557  2,076209086468  9063  10  50
2,18368343917929  2,06399609184172  9070  10  50
2,171470444553  2,05178309721544  9075  10  50
2,16170004885198  2,0371275036639  9080  10  50
2,1494870542257  2,02491450903762  9085  10  50
2,13727405959941  2,01025891548608  9090  10  50
2,12506106497313  1,99804592085979  9095  10  50
2,11284807034685  1,98583292623351  9100  10  50
2,10063507572057  1,97117733268197  9105  10  50
2,08842208109428  1,95652173913043  9110  10  50
2,076209086468  1,94430874450415  9115  10  50
2,06155349291646  1,92965315095261  9120  10  50
2,04934049829018  1,91744015632633  9125  10  50
2,0371275036639  1,90278456277479  9130  10  50
2,02491450903762  1,88812896922325  9135  10  50
2,01270151441133  1,87591597459697  9140  10  50
1,99804592085979  1,86126038104543  9145  10  50
1,98583292623351  1,84660478749389  9150  10  50
1,97361993160723  1,83194919394235  9155  10  50
1,95896433805569  1,81729360039082  9163  10  50
1,94675134342941  1,80508060576453  9168  10  50
1,93209574987787  1,79042501221299  9173  10  50
1,91988275525159  1,77576941866146  9178  10  50
1,90522716170005  1,76111382510992  9183  10  50
1,89301416707377  1,74645823155838  9188  10  50
1,87835857352223  1,73180263800684  9193  10  50
1,86370297997069  1,7171470444553  9198  10  50
1,85148998534441  1,70249145090376  9203  10  50
1,83683439179287  1,68783585735222  9208  10  50
1,82217879824133  1,67073766487543  9213  10  50
1,80996580361505  1,65608207132389  9218  10  50
1,79531021006351  1,64142647777235  9223  10  50
1,78065461651197  1,62677088422081  9228  10  50
1,76599902296043  1,61211529066927  9233  10  50
1,75134342940889  1,59501709819248  9238  10  50
1,73668783585735  1,58036150464094  9243  10  50
1,72203224230581  1,5657059110894  9248  10  50
1,70737664875427  1,55105031753786  9255  10  50
1,69272105520274  1,53395212506106  9260  10  50
1,6780654616512  1,51929653150953  9265  10  50
1,66340986809966  1,50219833903273  9270  10  50
1,64875427454812  1,48754274548119  9275  10  50
1,63409868099658  1,47288715192965  9280  10  50
1,61944308744504  1,45578895945286  9285  10  50
1,6047874938935  1,44113336590132  9290  10  50
1,59013190034196  1,42403517342452  9295  10  50
1,57547630679042  1,40937957987298  9300  10  50
1,55837811431363  1,39228138739619  9305  10  50
1,54372252076209  1,37518319491939  9310  10  50
1,52906692721055  1,36052760136786  9315  10  50
1,51196873473376  1,34342940889106  9320  10  50
1,49731314118222  1,32633121641426  9325  10  50
1,48265754763068  1,31167562286273  9330  10  50
1,46555935515388  1,29457743038593  9335  10  50
1,45090376160234  1,27747923790914  9340  10  50
1,43624816805081  1,2628236443576  9348  10  50
1,41914997557401  1,2457254518808  9353  10  50
1,40449438202247  1,22862725940401  9358  10  50
1,38739618954568  1,21152906692721  9363  10  50
1,37274059599414  1,19443087445042  9368  10  50
1,35564240351734  1,17977528089888  9373  10  50
1,33854421104055  1,16267708842208  9378  10  50
1,32388861748901  1,14557889594529  9383  10  50
1,30679042501221  1,12848070346849  9388  10  50
1,29213483146067  1,1113825109917  9393  10  50
1,27503663898388  1,0942843185149  9398  10  50
1,25793844650708  1,0771861260381  9403  10  50
1,24328285295554  1,06008793356131  9408  10  50
1,22618466047875  1,04298974108451  9413  10  50
1,20908646800195  1,02589154860772  9418  10  50
1,19198827552516  1,00879335613092  9423  10  50
1,17733268197362  0,991695163654128  9428  11  80
1,16023448949682  0,974596971177333  9434  11  80
1,14313629702003  0,957498778700537  9442  11  80
1,12603810454323  0,940400586223742  9447  11  80
1,10893991206644  0,923302393746947  9452  11  80
1,09184171958964  0,906204201270151  9457  11  80
1,07474352711285  0,889106008793356  9462  11  80
1,06008793356131  0,872007816316561  9467  11  80
1,04298974108451  0,852467024914509  9472  11  80
1,02589154860772  0,835368832437714  9477  11  80
1,00879335613092  0,818270639960918  9482  11  80
0,991695163654128  0,801172447484123  9487  11  80
0,974596971177333  0,784074255007328  9492  11  80
0,957498778700537  0,764533463605276  9497  11  80
0,940400586223742  0,747435271128481  9502  11  80
0,923302393746947  0,730337078651685  9507  11  80
0,906204201270151  0,71323888617489  9512  11  80
0,8866634098681  0,693698094772838  9517  11  80
0,869565217391304  0,676599902296043  9522  11  80
0,852467024914509  0,659501709819248  9530  11  80
0,835368832437714  0,642403517342452  9535  11  80
0,818270639960918  0,622862725940401  9540  11  80
0,801172447484123  0,605764533463605  9545  11  80
0,784074255007328  0,58866634098681  9550  11  80
0,766976062530532  0,569125549584758  9555  11  80
0,747435271128481  0,552027357107963  9560  11  80
0,730337078651685  0,534929164631168  9565  11  80
0,71323888617489  0,515388373229116  9570  11  80
0,696140693698095  0,49829018075232  9575  11  80
0,676599902296043  0,478749389350269  9580  11  80
0,659501709819248  0,461651196873473  9585  11  80
0,642403517342452  0,444553004396678  9590  11  80
0,625305324865657  0,425012212994626  9595  11  80
0,605764533463605  0,407914020517831  9600  11  80
0,58866634098681  0,388373229115779  9605  11  80
0,571568148510015  0,371275036638984  9610  11  80
0,552027357107963  0,354176844162189  9618  11  80
0,534929164631168  0,334636052760137  9623  11  80
0,517830972154372  0,317537860283341  9628  11  80
0,49829018075232  0,29799706888129  9633  12  20
0,481191988275525  0,280898876404494  9639  12  20
0,46409379579873  0,261358085002443  9644  12  20
0,444553004396678  0,244259892525647  9649  12  20
0,427454811919883  0,224719101123595  9654  12  20
0,407914020517831  0,2076209086468  9659  12  20
0,390815828041036  0,188080117244748  9664  12  20
0,37371763556424  0,170981924767953  9669  12  20
0,354176844162189  0,153883732291158  9674  12  20
0,337078651685393  0,134342940889106  9679  12  20
0,317537860283341  0,117244748412311  9684  12  20
0,300439667806546  0,0977039570102589  9689  12  20
0,283341475329751  0,0806057645334636  9694  12  20
0,263800683927699  0,0610649731314118  9699  12  20
0,246702491450904  0,0439667806546165  9707  12  20
0,227161700048852  0,0244259892525647  9712  12  20
0,210063507572057  0,00732779677576942  9717  12  20
0,190522716170005  -0,00977039570102589  9722  12  20
0,17342452369321  -0,0268685881778212  9727  12  20
0,153883732291158  -0,046409379579873  9732  12  20
0,136785539814362  -0,0635075720566683  9737  12  20
0,117244748412311  -0,0830483634587201  9742  12  20
0,100146555935515  -0,100146555935515  9747  12  20
0,0830483634587201  -0,119687347337567  9752  12  20
0,0635075720566683  -0,136785539814362  9757  12  20
0,046409379579873  -0,156326331216414  9762  12  20
0,0268685881778212  -0,17342452369321  9767  12  20
0,00977039570102589  -0,192965315095261  9772  12  20
-0,00732779677576942  -0,210063507572057  9777  12  20
-0,0244259892525647  -0,229604298974108  9782  12  20
-0,0439667806546165  -0,246702491450904  9787  12  20
-0,0610649731314118  -0,263800683927699  9795  12  20
-0,0806057645334636  -0,283341475329751  9800  12  20
-0,0977039570102589  -0,300439667806546  9805  12  20
-0,117244748412311  -0,319980459208598  9810  12  20
-0,134342940889106  -0,337078651685393  9815  12  20
-0,153883732291158  -0,356619443087445  9820  12  20
-0,170981924767953  -0,37371763556424  9825  12  20
-0,190522716170005  -0,390815828041036  9830  12  20
-0,2076209086468  -0,410356619443087  9835  12  20
-0,227161700048852  -0,427454811919883  9840  12  20
-0,244259892525647  -0,446995603321935  9845  12  20
-0,263800683927699  -0,46409379579873  9850  12  20
-0,280898876404494  -0,481191988275525  9855  12  20
-0,300439667806546  -0,500732779677577  9860  12  20
-0,317537860283341  -0,517830972154372  9865  12  20
-0,334636052760137  -0,537371763556424  9870  12  20
-0,354176844162189  -0,554469956033219  9875  12  20
-0,371275036638984  -0,571568148510015  9883  12  20
-0,390815828041036  -0,591108939912066  9888  12  20
-0,407914020517831  -0,608207132388862  9893  12  20
-0,427454811919883  -0,625305324865657  9898  12  20
-0,444553004396678  -0,644846116267709  9903  12  20
-0,461651196873473  -0,661944308744504  9908  12  20
-0,481191988275525  -0,6790425012213  9913  12  20
-0,49829018075232  -0,696140693698095  9918  12  20
-0,517830972154372  -0,715681485100147  9923  12  20
-0,534929164631168  -0,732779677576942  9928  12  20
-0,552027357107963  -0,749877870053737  9933  12  20
-0,571568148510015  -0,766976062530532  9938  12  20
-0,58866634098681  -0,786516853932584  9943  12  20
-0,605764533463605  -0,80361504640938  9948  12  20
-0,625305324865657  -0,820713238886175  9953  12  20
-0,642403517342452  -0,83781143136297  9958  12  20
-0,659501709819248  -0,854909623839766  9963  12  20
-0,6790425012213  -0,872007816316561  9971  12  20
-0,696140693698095  -0,891548607718613  9976  12  20
-0,71323888617489  -0,908646800195408  9981  12  20
-0,732779677576942  -0,925744992672203  9986  12  20
-0,749877870053737  -0,942843185148998  9991  12  20
-0,766976062530532  -0,959941377625794  9996  12  20
-0,784074255007328  -0,977039570102589  10001  12  20
-0,80361504640938  -0,994137762579384  10006  12  20
-0,820713238886175  -1,01123595505618  10011  12  20
-0,83781143136297  -1,02833414753298  10016  12  20
-0,854909623839766  -1,04543234000977  10021  12  20
-0,872007816316561  -1,06253053248657  10026  12  20
-0,891548607718613  -1,07962872496336  10031  12  20
-0,908646800195408  -1,09672691744016  10036  12  20
-0,925744992672203  -1,11382510991695  10041  12  20
-0,942843185148998  -1,13092330239375  10046  12  20
-0,959941377625794  -1,14802149487054  10051  12  20
-0,977039570102589  -1,16267708842208  10059  12  20
-0,994137762579384  -1,17977528089888  10064  12  20
-1,01123595505618  -1,19687347337567  10069  12  20
-1,02833414753298  -1,21397166585247  10074  12  20
-1,04543234000977  -1,23106985832926  10079  12  20
-1,06253053248657  -1,2457254518808  10084  12  20
-1,07962872496336  -1,2628236443576  10089  12  20
-1,09672691744016  -1,27992183683439  10094  12  20
-1,11382510991695  -1,29702002931119  10099  12  20
-1,13092330239375  -1,31167562286273  10104  12  20
-1,14802149487054  -1,32877381533952  10109  12  20
-1,16511968734734  -1,34587200781632  10114  12  20
-1,18221787982413  -1,36052760136786  10119  12  20
-1,19931607230093  -1,37762579384465  10124  12  20
-1,21641426477772  -1,39228138739619  10129  12  20
-1,23351245725452  -1,40937957987298  10134  12  20
-1,25061064973131  -1,42403517342452  10142  12  20
-1,26526624328285  -1,44113336590132  10147  12  20
-1,28236443575965  -1,45578895945286  10152  12  20
-1,29946262823644  -1,47288715192965  10157  12  20
-1,31656082071324  -1,48754274548119  10162  12  20
-1,33121641426478  -1,50464093795799  10167  12  20
-1,34831460674157  -1,51929653150953  10172  12  20
-1,36541279921837  -1,53395212506106  10177  12  20
-1,38006839276991  -1,55105031753786  10182  12  20
-1,3971665852467  -1,5657059110894  10187  12  20
-1,4142647777235  -1,58036150464094  10192  12  20
-1,42892037127504  -1,59745969711773  10197  12  20
-1,44601856375183  -1,61211529066927  10202  12  20
-1,46067415730337  -1,62677088422081  10207  12  20
-1,47777234978017  -1,64142647777235  10212  12  20
-1,4924279433317  -1,65608207132389  10217  12  20
-1,5095261358085  -1,67318026380068  10225  12  20
-1,52418172936004  -1,68783585735222  10230  12  20
-1,54127992183683  -1,70249145090376  10235  12  20
-1,55593551538837  -1,7171470444553  10240  12  20
-1,57303370786517  -1,73180263800684  10245  12  20
-1,58768930141671  -1,74645823155838  10250  12  20
-1,60234489496825  -1,76111382510992  10255  12  20
-1,61944308744504  -1,77576941866146  10260  12  20
-1,63409868099658  -1,79042501221299  10265  12  20
-1,64875427454812  -1,80263800683928  10270  12  20
-1,66340986809966  -1,81729360039082  10275  12  20
-1,68050806057645  -1,83194919394235  10280  12  20
-1,69516365412799  -1,84660478749389  10285  12  20
-1,70981924767953  -1,86126038104543  10290  12  20
-1,72447484123107  -1,87347337567171  10295  12  20
-1,73913043478261  -1,88812896922325  10300  12  20
-1,75378602833415  -1,90278456277479  10308  12  20
-1,76844162188569  -1,91499755740107  10313  12  20
-1,78309721543723  -1,92965315095261  10318  12  20
-1,79775280898876  -1,94430874450415  10323  12  20
-1,8124084025403  -1,95652173913043  10328  12  20
-1,82706399609184  -1,97117733268197  10333  12  20
-1,84171958964338  -1,98339032730826  10338  12  20
-1,85637518319492  -1,99804592085979  10343  12  20
-1,87103077674646  -2,01025891548608  10348  12  20
-1,88324377137274  -2,02247191011236  10353  12  20
-1,89789936492428  -2,0371275036639  10358  12  20
-1,91255495847582  -2,04934049829018  10363  12  20
-1,92721055202736  -2,06155349291646  10368  12  20
-1,93942354665364  -2,076209086468  10373  12  20
-1,95407914020518  -2,08842208109428  10378  12  20
-1,96873473375672  -2,10063507572057  10383  12  20
-1,980947728383  -2,11284807034685  10391  12  20
-1,99560332193454  -2,12506106497313  10396  12  20
-2,00781631656082  -2,13727405959941  10401  12  20
-2,02247191011236  -2,1494870542257  10406  12  20
-2,03468490473864  -2,16170004885198  10411  12  20
-2,04934049829018  -2,17391304347826  10416  12  20
-2,06155349291646  -2,18612603810454  10421  12  20
-2,076209086468  -2,19833903273083  10426  12  20
-2,08842208109428  -2,21055202735711  10431  12  20
-2,10063507572057  -2,22276502198339  10436  12  20
-2,11529066927211  -2,23497801660967  10441  12  20
-2,12750366389839  -2,2447484123107  10446  12  20
-2,13971665852467  -2,25696140693698  10451  12  20
-2,15192965315095  -2,26917440156326  10456  12  20
-2,16414264777724  -2,27894479726429  10461  12  20
-2,17635564240352  -2,29115779189057  10466  12  20
-2,19101123595506  -2,30337078651685  10474  12  20
-2,20322423058134  -2,31314118221788  10479  12  20
-2,21543722520762  -2,32535417684416  10484  12  20
-2,2276502198339  -2,33512457254519  10489  12  20
-2,23742061553493  -2,34489496824621  10494  12  20
-2,24963361016121  -2,3571079628725  10499  12  20
-2,26184660478749  -2,36687835857352  10504  12  20
-2,27405959941378  -2,3790913531998  10509  12  20
-2,28627259404006  -2,38886174890083  10514  12  20
-2,29848558866634  -2,39863214460186  10519  12  20
-2,30825598436737  -2,40840254030288  10524  12  20
-2,32046897899365  -2,41817293600391  10529  12  20
-2,33268197361993  -2,42794333170493  10534  12  20
-2,34245236932096  -2,44015632633122  10539  12  20
-2,35466536394724  -2,44992672203224  10544  12  20
-2,36443575964827  -2,45969711773327  10549  12  20
-2,37664875427455  -2,46946751343429  10557  12  20
-2,38641914997557  -2,47679531021006  10562  12  20
-2,39863214460186  -2,48656570591109  10567  12  20
-2,40840254030288  -2,49633610161212  10572  12  20
-2,41817293600391  -2,50610649731314  10577  12  20
-2,43038593063019  -2,51587689301417  10582  12  20
-2,44015632633122  -2,52320468978994  10587  12  20
-2,44992672203224  -2,53297508549096  10592  12  20
-2,45969711773327  -2,54274548119199  10597  12  20
-2,47191011235955  -2,55007327796776  10602  12  20
-2,48168050806058  -2,55984367366878  10607  12  20
-2,4914509037616  -2,56717147044455  10612  12  20
-2,50122129946263  -2,57694186614558  10617  12  20
-2,51099169516365  -2,58426966292135  10622  12  20
-2,52076209086468  -2,59404005862237  10627  12  20
-2,53053248656571  -2,60136785539814  10632  12  20
-2,53786028334148  -2,60869565217391  10640  13  255
-2,5476306790425  -2,61846604787494  10646  13  255
-2,55740107474353  -2,62579384465071  10651  13  255
-2,56717147044455  -2,63312164142648  10656  13  255
-2,57694186614558  -2,64044943820225  10661  13  255
-2,58426966292135  -2,64777723497802  10666  13  255
-2,59404005862237  -2,65510503175379  10671  13  255
-2,60136785539814  -2,66243282852956  10676  13  255
-2,61113825109917  -2,66976062530533  10681  13  255
-2,6209086468002  -2,67708842208109  10686  13  255
-2,62823644357596  -2,68441621885686  10691  13  255
-2,63556424035173  -2,69174401563263  10696  13  255
-2,64533463605276  -2,6990718124084  10701  13  255
-2,65266243282853  -2,70395701025892  10706  13  255
-2,6599902296043  -2,71128480703468  10711  13  255
-2,66976062530533  -2,71861260381045  10716  13  255
-2,67708842208109  -2,72349780166097  10724  13  255
-2,68441621885686  -2,73082559843674  10729  13  255
-2,69174401563263  -2,73571079628725  10734  13  255
-2,6990718124084  -2,74303859306302  10739  13  255
-2,70639960918417  -2,74792379091353  10744  13  255
-2,71372740595994  -2,7552515876893  10749  13  255
-2,72105520273571  -2,76013678553981  10754  13  255
-2,72838299951148  -2,76502198339033  10759  13  255
-2,73571079628725  -2,76990718124084  10764  13  255
-2,74303859306302  -2,77723497801661  10769  13  255
-2,75036638983879  -2,78212017586712  10774  13  255
-2,7552515876893  -2,78700537371764  10779  13  255
-2,76257938446507  -2,79189057156815  10784  13  255
-2,76990718124084  -2,79677576941866  10789  13  255
-2,77479237909135  -2,80166096726917  10794  13  255
-2,78212017586712  -2,80654616511969  10802  13  255
-2,78700537371764  -2,8114313629702  10807  13  255
-2,79433317049341  -2,81631656082071  10812  13  255
-2,79921836834392  -2,82120175867123  10817  13  255
-2,80654616511969  -2,82364435759648  10822  13  255
-2,8114313629702  -2,828529555447  10827  13  255
-2,81631656082071  -2,83341475329751  10832  13  255
-2,82120175867123  -2,83585735222277  10837  13  255
-2,828529555447  -2,84074255007328  10842  13  255
-2,83341475329751  -2,84318514899853  10847  13  255
-2,83829995114802  -2,84807034684905  10852  13  255
-2,84318514899853  -2,8505129457743  10857  13  255
-2,84807034684905  -2,85539814362482  10862  13  255
-2,85295554469956  -2,85784074255007  10867  13  255
-2,85784074255007  -2,86028334147533  10872  13  255
-2,86272594040059  -2,86516853932584  10880  13  255
-2,8676111382511  -2,8676111382511  10885  13  255
-2,87005373717636  -2,87005373717636  10890  13  255
-2,87493893502687  -2,87249633610161  10895  13  255
-2,87982413287738  -2,87493893502687  10900  13  255
-2,88470933072789  -2,87738153395212  10905  13  255
-2,88715192965315  -2,87982413287738  10910  13  255
-2,89203712750366  -2,88226673180264  10915  13  255
-2,89447972642892  -2,88470933072789  10920  13  255
-2,89936492427943  -2,88715192965315  10925  13  255
-2,90180752320469  -2,88715192965315  10930  13  255
-2,9066927210552  -2,88959452857841  10935  13  255
-2,90913531998046  -2,89203712750366  10940  13  255
-2,91157791890572  -2,89203712750366  10945  13  255
-2,91402051783097  -2,89447972642892  10950  13  255
-2,91890571568148  -2,89692232535418  10958  13  255
-2,92134831460674  -2,89692232535418  10963  13  255
-2,923790913532  -2,89936492427943  10968  13  255
-2,92623351245725  -2,89936492427943  10973  13  255
-2,92867611138251  -2,89936492427943  10978  13  255
-2,93111871030777  -2,90180752320469  10983  13  255
-2,93356130923302  -2,90180752320469  10988  13  255
-2,93600390815828  -2,90180752320469  10993  13  255
-2,93600390815828  -2,90180752320469  10998  13  255
-2,93844650708354  -2,90180752320469  11003  13  255
-2,94088910600879  -2,90180752320469  11008  13  255
-2,94333170493405  -2,90425012212995  11013  13  255
-2,94333170493405  -2,90180752320469  11018  13  255
-2,94577430385931  -2,90180752320469  11023  13  255
-2,94577430385931  -2,90180752320469  11028  13  255
-2,94821690278456  -2,90180752320469  11036  13  255
-2,94821690278456  -2,90180752320469  11041  13  255
-2,95065950170982  -2,90180752320469  11046  13  255
-2,95065950170982  -2,89936492427943  11051  13  255
-2,95065950170982  -2,89936492427943  11056  13  255
-2,95310210063508  -2,89936492427943  11061  13  255
-2,95310210063508  -2,89692232535418  11066  13  255
-2,95310210063508  -2,89692232535418  11071  13  255
-2,95310210063508  -2,89447972642892  11076  13  255
-2,95310210063508  -2,89447972642892  11081  13  255
-2,95310210063508  -2,89203712750366  11086  13  255
-2,95310210063508  -2,88959452857841  11091  13  255
-2,95310210063508  -2,88959452857841  11096  13  255
-2,95310210063508  -2,88715192965315  11101  13  255
-2,95310210063508  -2,88470933072789  11106  13  255
-2,95310210063508  -2,88226673180264  11114  13  255
-2,95065950170982  -2,87982413287738  11119  13  255
-2,95065950170982  -2,87738153395212  11124  13  255
-2,95065950170982  -2,87493893502687  11129  13  255
-2,94821690278456  -2,87249633610161  11134  13  255
-2,94821690278456  -2,87005373717636  11139  13  255
-2,94577430385931  -2,8676111382511  11144  13  255
-2,94577430385931  -2,86516853932584  11149  13  255
-2,94333170493405  -2,86272594040059  11154  13  255
-2,94333170493405  -2,85784074255007  11159  13  255
-2,94088910600879  -2,85539814362482  11164  13  255
-2,93844650708354  -2,85295554469956  11169  13  255
-2,93600390815828  -2,84807034684905  11174  13  255
-2,93600390815828  -2,84562774792379  11179  13  255
-2,93356130923302  -2,84074255007328  11184  13  255
-2,93111871030777  -2,83829995114802  11192  13  255
-2,92867611138251  -2,83341475329751  11197  13  255
-2,92623351245725  -2,828529555447  11202  13  255
-2,923790913532  -2,82608695652174  11207  13  255
-2,92134831460674  -2,82120175867123  11212  13  255
-2,91890571568148  -2,81631656082071  11217  13  255
-2,91402051783097  -2,8114313629702  11222  13  255
-2,91157791890572  -2,80654616511969  11227  13  255
-2,90913531998046  -2,80166096726917  11232  13  255
-2,9066927210552  -2,79921836834392  11237  13  255
-2,90180752320469  -2,79189057156815  11242  13  255
-2,89936492427943  -2,78700537371764  11247  13  255
-2,89447972642892  -2,78212017586712  11252  13  255
-2,89203712750366  -2,77723497801661  11257  13  255
-2,88715192965315  -2,7723497801661  11262  13  255
-2,88470933072789  -2,76746458231558  11270  13  255
-2,87982413287738  -2,76013678553981  11275  13  255
-2,87493893502687  -2,7552515876893  11280  13  255
-2,87005373717636  -2,75036638983879  11285  13  255
-2,8676111382511  -2,74303859306302  11290  13  255
-2,86272594040059  -2,73815339521251  11295  13  255
-2,85784074255007  -2,73082559843674  11300  13  255
-2,85295554469956  -2,72594040058622  11305  13  255
-2,84807034684905  -2,71861260381045  11310  13  255
-2,84318514899853  -2,71372740595994  11315  13  255
-2,83829995114802  -2,70639960918417  11320  13  255
-2,83341475329751  -2,6990718124084  11325  13  255
-2,828529555447  -2,69174401563263  11330  13  255
-2,82120175867123  -2,68685881778212  11335  13  255
-2,81631656082071  -2,67953102100635  11340  13  255
-2,8114313629702  -2,67220322423058  11348  13  255
-2,80654616511969  -2,66487542745481  11353  13  255
-2,79921836834392  -2,65754763067904  11358  13  255
-2,79433317049341  -2,65021983390327  11363  13  255
-2,78700537371764  -2,6428920371275  11368  13  255
-2,78212017586712  -2,63556424035173  11373  13  255
-2,77479237909135  -2,62579384465071  11378  13  255
-2,76990718124084  -2,61846604787494  11383  13  255
-2,76257938446507  -2,61113825109917  11388  13  255
-2,7552515876893  -2,6038104543234  11393  13  255
-2,75036638983879  -2,59404005862237  11398  13  255
-2,74303859306302  -2,5867122618466  11403  13  255
-2,73571079628725  -2,57938446507084  11408  13  255
-2,72838299951148  -2,56961406936981  11413  13  255
-2,72105520273571  -2,56228627259404  11418  13  255
-2,71372740595994  -2,55251587689301  11426  13  255
-2,70639960918417  -2,54518808011724  11431  13  255
-2,6990718124084  -2,53541768441622  11436  13  255
-2,69174401563263  -2,52564728871519  11441  13  255
-2,68441621885686  -2,51831949193942  11446  13  255
-2,67708842208109  -2,5085490962384  11451  13  255
-2,66976062530533  -2,49877870053737  11456  13  255
-2,6599902296043  -2,48900830483635  11461  13  255
-2,65266243282853  -2,47923790913532  11466  13  255
-2,64533463605276  -2,46946751343429  11471  13  255
-2,63556424035173  -2,45969711773327  11476  13  255
-2,62823644357596  -2,44992672203224  11481  13  255
-2,6209086468002  -2,44015632633122  11486  13  255
-2,61113825109917  -2,43038593063019  11491  13  255
-2,60136785539814  -2,42061553492916  11499  13  255
-2,59404005862237  -2,41084513922814  11504  13  255
-2,58426966292135  -2,40107474352711  11509  13  255
-2,57694186614558  -2,39130434782609  11514  13  255
-2,56717147044455  -2,3790913531998  11519  13  255
-2,55740107474353  -2,36932095749878  11524  13  255
-2,5476306790425  -2,35955056179775  11529  13  255
-2,53786028334148  -2,34733756717147  11534  13  255
-2,53053248656571  -2,33756717147044  11539  13  255
-2,52076209086468  -2,32779677576942  11544  13  255
-2,51099169516365  -2,31558378114314  11549  13  255
-2,50122129946263  -2,30581338544211  11554  13  255
-2,4914509037616  -2,29360039081583  11559  13  255
-2,48168050806058  -2,28138739618955  11564  13  255
-2,47191011235955  -2,27161700048852  11572  13  255
-2,45969711773327  -2,25940400586224  11577  13  255
-2,44992672203224  -2,24719101123596  11582  13  255
-2,44015632633122  -2,23742061553493  11587  13  255
-2,43038593063019  -2,22520762090865  11592  13  255
-2,41817293600391  -2,21299462628236  11597  13  255
-2,40840254030288  -2,20078163165608  11602  13  255
-2,39863214460186  -2,1885686370298  11607  13  255
-2,38641914997557  -2,17635564240352  11612  13  255
-2,37664875427455  -2,16414264777724  11617  13  255
-2,36443575964827  -2,15192965315095  11622  13  255
-2,35466536394724  -2,13971665852467  11627  13  255
-2,34245236932096  -2,12750366389839  11632  13  255
-2,33268197361993  -2,11529066927211  11637  13  255
-2,32046897899365  -2,10307767464582  11645  14  50
-2,30825598436737  -2,09086468001954  11651  14  50
-2,29848558866634  -2,07865168539326  11656  14  50
-2,28627259404006  -2,06399609184172  11661  14  50
-2,27405959941378  -2,05178309721544  11666  14  50
-2,26184660478749  -2,03957010258915  11671  14  50
-2,24963361016121  -2,02735710796287  11676  14  50
-2,23742061553493  -2,01270151441133  11681  14  50
-2,2276502198339  -2,00048851978505  11686  14  50
-2,21543722520762  -1,98583292623351  11691  14  50
-2,20322423058134  -1,97361993160723  11696  14  50
-2,19101123595506  -1,95896433805569  11701  14  50
-2,17635564240352  -1,94675134342941  11706  14  50
-2,16414264777724  -1,93209574987787  11711  14  50
-2,15192965315095  -1,91988275525159  11719  14  50
-2,13971665852467  -1,90522716170005  11724  14  50
-2,12750366389839  -1,89057156814851  11730  14  50
-2,11529066927211  -1,87835857352223  11736  14  50
-2,10063507572057  -1,86370297997069  11741  14  50
-2,08842208109428  -1,84904738641915  11746  14  50
-2,076209086468  -1,83439179286761  11751  14  50
-2,06155349291646  -1,82217879824133  11758  14  50
-2,04934049829018  -1,80752320468979  11764  14  50
-2,03468490473864  -1,79286761113825  11769  14  50
-2,02247191011236  -1,77821201758671  11774  14  50
-2,00781631656082  -1,76355642403517  11779  14  50
-1,99560332193454  -1,74890083048363  11784  14  50
-1,980947728383  -1,7342452369321  11789  14  50
-1,96873473375672  -1,71958964338056  11797  14  50
-1,95407914020518  -1,70493404982902  11802  14  50
-1,93942354665364  -1,69027845627748  11807  14  50
-1,92721055202736  -1,67562286272594  11812  14  50
-1,91255495847582  -1,6609672691744  11817  14  50
-1,89789936492428  -1,64631167562286  11822  14  50
-1,88324377137274  -1,62921348314607  11827  14  50
-1,87103077674646  -1,61455788959453  11832  14  50
-1,85637518319492  -1,59990229604299  11837  14  50
-1,84171958964338  -1,58524670249145  11842  14  50
-1,82706399609184  -1,57059110893991  11847  14  50
-1,8124084025403  -1,55349291646312  11852  14  50
-1,79775280898876  -1,53883732291158  11857  14  50
-1,78309721543723  -1,52418172936004  11862  14  50
-1,76844162188569  -1,50708353688324  11870  14  50
-1,75378602833415  -1,4924279433317  11875  14  50
-1,73913043478261  -1,47532975085491  11880  14  50
-1,72447484123107  -1,46067415730337  11885  14  50
-1,70981924767953  -1,44357596482658  11890  14  50
-1,69516365412799  -1,42892037127504  11895  14  50
-1,68050806057645  -1,41182217879824  11900  14  50
-1,66340986809966  -1,3971665852467  11905  14  50
-1,64875427454812  -1,38006839276991  11910  14  50
-1,63409868099658  -1,36541279921837  11915  14  50
-1,61944308744504  -1,34831460674157  11920  14  50
-1,60234489496825  -1,33121641426478  11925  14  50
-1,58768930141671  -1,31656082071324  11930  14  50
-1,57303370786517  -1,29946262823644  11935  14  50
-1,55593551538837  -1,28236443575965  11943  14  50
-1,54127992183683  -1,26770884220811  11948  14  50
-1,52418172936004  -1,25061064973131  11953  14  50
-1,5095261358085  -1,23351245725452  11958  14  50
-1,4924279433317  -1,21641426477772  11963  14  50
-1,47777234978017  -1,20175867122618  11968  14  50
-1,46067415730337  -1,18466047874939  11973  14  50
-1,44601856375183  -1,16756228627259  11978  14  50
-1,42892037127504  -1,1504640937958  11983  14  50
-1,4142647777235  -1,133365901319  11988  14  50
-1,3971665852467  -1,11626770884221  11993  14  50
-1,38006839276991  -1,09916951636541  11998  14  50
-1,36541279921837  -1,08207132388862  12003  14  50
-1,34831460674157  -1,06497313141182  12008  14  50
-1,33121641426478  -1,05031753786028  12016  14  50
-1,31656082071324  -1,03321934538349  12021  14  50
-1,29946262823644  -1,01612115290669  12026  14  50
-1,28236443575965  -0,999022960429897  12031  14  50
-1,26526624328285  -0,979482169027846  12036  14  50
-1,25061064973131  -0,96238397655105  12041  14  50
-1,23351245725452  -0,945285784074255  12046  14  50
-1,21641426477772  -0,92818759159746  12051  14  50
-1,19931607230093  -0,911089399120664  12056  14  50
-1,18221787982413  -0,893991206643869  12062  14  50
-1,16511968734734  -0,876893014167074  12068  14  50
-1,14802149487054  -0,859794821690278  12073  14  50
-1,13092330239375  -0,842696629213483  12078  14  50
-1,11382510991695  -0,825598436736688  12083  14  50
-1,09672691744016  -0,806057645334636  12091  14  50
-1,07962872496336  -0,788959452857841  12097  14  50
-1,06253053248657  -0,771861260381045  12102  14  50
-1,04543234000977  -0,75476306790425  12107  14  50
-1,02833414753298  -0,735222276502198  12112  14  50
-1,01123595505618  -0,718124084025403  12117  14  50
-0,994137762579384  -0,701025891548608  12122  14  50
-0,977039570102589  -0,683927699071812  12127  14  50
-0,959941377625794  -0,664386907669761  12132  14  50
-0,942843185148998  -0,647288715192965  12137  14  50
-0,925744992672203  -0,63019052271617  12142  14  50
-0,908646800195408  -0,613092330239375  12147  14  50
-0,891548607718613  -0,593551538837323  12152  14  50
-0,872007816316561  -0,576453346360528  12157  14  50
-0,854909623839766  -0,559355153883732  12165  14  50
-0,83781143136297  -0,53981436248168  12170  14  50
-0,820713238886175  -0,522716170004885  12175  14  50
-0,80361504640938  -0,503175378602833  12180  14  50
-0,784074255007328  -0,486077186126038  12185  14  50
-0,766976062530532  -0,468978993649243  12190  14  50
-0,749877870053737  -0,449438202247191  12195  14  50
-0,732779677576942  -0,432340009770396  12200  14  50
